energy	step1_	g1_	g2_	g3_
398.1609	0.025281007584794124	2.7953798435272948e-68	5.466420455749876e-301	1.1054995279986701e-67
398.3594	0.02578811824664451	1.467649475835843e-63	3.9612749636871644e-289	1.5117489409026357e-65
398.558	0.026316213591319526	5.243466372326938e-59	1.67632087861604e-277	1.9121748642926922e-63
398.7566	0.02686633759419399	1.2676770665779408e-54	4.085397483174314e-266	2.231606027187592e-61
398.9551	0.027439599501546896	2.0640191290390343e-50	5.661270083157575e-255	2.3973696504377525e-59
399.1537	0.02803810204449675	2.2854791922289616e-46	4.577429875285864e-244	2.3819163369181766e-57
399.3523	0.02866322322466819	1.7125167524637137e-42	2.1314960047104584e-233	2.1835341662446416e-55
399.5509	0.02931677408089356	8.6833316505093e-39	5.71613324551133e-223	1.8468663525262483e-53
399.7495	0.03000073324913549	2.9794215323158607e-35	8.82826096369492e-213	1.4412951823915916e-51
399.948	0.0307168973675106	6.89158971639311e-32	7.763430163894822e-203	1.0355854974115078e-49
400.1466	0.031468362998022414	1.083024758255999e-28	3.977929957401854e-193	6.880262454662432e-48
400.3452	0.032257389678206794	1.1517318012397624e-25	1.1738581263977628e-183	4.217606317312601e-46
400.5437	0.03308642693583408	8.261566264654142e-23	1.9739752365477e-174	2.3806493371622164e-44
400.7423	0.033959487077757866	4.0239147531573286e-20	1.9325504569704766e-165	1.2423902747395565e-42
400.8698	0.03454459302109619	1.740475408023377e-18	8.547758275879102e-160	1.508333460882534e-41
400.9691	0.03501438637031168	2.9269534832552634e-17	1.821606659649645e-155	1.0302627596624623e-40
401.0684	0.03549708017652542	4.464391271627599e-16	3.3817829327013007e-151	6.896982680751862e-40
401.1677	0.03599321088955709	6.175998489342336e-15	5.469222604229723e-147	4.525126934076623e-39
401.267	0.036503344985871544	7.74908835298646e-14	7.7053828428957615e-143	2.9097983541539315e-38
401.3663	0.03702808108926042	8.818455850497009e-13	9.456960879495837e-139	1.8338149918425466e-37
401.4656	0.03756805227292642	9.101919247040942e-12	1.0111083871087912e-134	1.1326836743917937e-36
401.5648	0.03812336053144699	8.501881638040497e-11	9.331803910996602e-131	6.844459059279349e-36
401.6641	0.03869583451886127	7.219301665814728e-10	7.572679163926258e-127	4.0608976858522833e-35
401.7634	0.039285674863243636	5.559987632700559e-09	5.3533083503699975e-123	2.3613777254197523e-34
401.8627	0.039893679722512176	3.8837472818085514e-08	3.296732512286092e-119	1.3457654490571045e-33
401.962	0.04052069665166974	2.460518302367297e-07	1.7686174767882026e-115	7.516813638713624e-33
402.0613	0.04116762646160105	1.4138415422626635e-06	8.265571038161892e-112	4.1148943505508653e-32
402.1606	0.0418354274430503	7.368403112512167e-06	3.3651200540672777e-108	2.2077205110228817e-31
402.2599	0.042525119996487226	3.48292816503328e-05	1.1934851293510144e-104	1.16088712056941e-30
402.3591	0.043237062076734445	0.00014910728438798988	3.6579506380768657e-101	5.9728782241832195e-30
402.4584	0.04397384840719515	0.0005798420440817137	9.846732105459834e-98	3.0168891716283386e-29
402.5577	0.04473601227346674	0.0020451211750948336	2.3090596582298084e-94	1.493466719617346e-28
402.657	0.04552487858062887	0.006542246280574959	4.717011493572966e-91	7.24589838679788e-28
402.7563	0.046341865409691485	0.018981618184768418	8.394357568404368e-88	3.445477567514105e-27
402.8556	0.04718849229021055	0.04995029741704093	1.3013578740132353e-84	1.6057099966158577e-26
402.9549	0.04806638936269525	0.1192178881634683	1.757497731689768e-81	7.334074086639231e-26
403.0541	0.04897637297424029	0.25788544638820554	2.0531442143886234e-78	3.2781803315059244e-25
403.1534	0.04992215910700598	0.5063722313492302	2.1045309501774507e-75	1.4382713095640903e-24
403.2527	0.050904874853893056	0.9018024905946515	1.879229961258503e-72	6.1845668958939404e-24
403.352	0.051926706358874586	1.4566374786492005	1.461817942832339e-69	2.606383170912781e-23
403.4513	0.0529900140974639	2.1339784546827985	9.905933267899015e-67	1.0765339519974298e-22
403.5506	0.054097350422859736	2.8354832198072826	5.847715793199096e-64	4.357904380509449e-22
403.6498	0.05525029246404589	3.4166646582050313	2.9885856756606785e-61	1.7265924051297108e-21
403.7491	0.05645415966503614	3.73490112013536	1.339042625847372e-58	6.713818358050051e-21
403.8484	0.0577110697797138	3.7030055462448144	5.226510692436046e-56	2.5586438906739702e-20
403.9477	0.05902456549554452	3.3298764295207732	1.7771252343569985e-53	9.556758264516238e-20
404.047	0.060398508084756164	2.715816189324875	5.263964765045771e-51	3.498419243903168e-19
404.1463	0.06183711352977678	2.0089592578823887	1.3583030095974975e-48	1.2551441403782889e-18
404.2456	0.06334499359983964	1.3478463485689358	3.0532973567051576e-46	4.413426005743355e-18
404.3448	0.06492557010712496	0.8206287464272684	5.947745937857302e-44	1.5190842436377212e-17
404.4441	0.06658757527213005	0.4529556542323451	1.0147584590130351e-41	5.1309041456860187e-17
404.5434	0.06833556143329284	0.2267582753870451	1.5082096004119566e-39	1.6985034787880595e-16
404.6427	0.07017626376499186	0.10296013565169042	1.952762700246412e-37	5.510607477993769e-16
404.742	0.07211712644623114	0.042400752836693825	2.2025510875650023e-35	1.7522376628259832e-15
404.8413	0.0741663964759573	0.01583713176495297	2.1641694368643988e-33	5.460683953174489e-15
404.9406	0.0763332324161643	0.0053651021257281875	1.852444809959767e-31	1.6678675904084567e-14
405.0399	0.078627830825097	0.0016484582685106022	1.381300107734931e-29	4.992712918280348e-14
405.1391	0.08105904868242592	0.0004599986572596272	8.93561173813204e-28	1.4632070417395062e-13
405.2384	0.08364451621532759	0.00011627764571165903	5.057138993591394e-26	4.207369003202638e-13
405.3377	0.08639615355697144	2.665841943764672e-05	2.4932982942264523e-24	1.1857030055897077e-12
405.437	0.08933005842251779	5.543334225177445e-06	1.0708591183306377e-22	3.274927843160448e-12
405.5363	0.09246440919401261	1.0454571394569942e-06	4.006629530107749e-21	8.865189993109668e-12
405.6356	0.09581979904433502	1.7882980458510767e-07	1.305914624948959e-19	2.3519866736235555e-11
405.7349	0.099419633335943	2.7744191405808017e-08	3.707994941374438e-18	6.115643526580828e-11
405.8341	0.10328655922511926	3.911845956859058e-09	9.142800243888328e-17	1.5570595796395956e-10
405.9334	0.10745889047841772	4.992908606785664e-10	1.970341075231069e-15	3.8890393059193624e-10
406.0327	0.11196794497890966	5.7799487731828374e-11	3.699068215800388e-14	9.520065389036893e-10
406.132	0.11685414921199294	6.0686607877949724e-12	6.049674650832674e-13	2.284010138504197e-09
406.2313	0.12216426676042941	5.77910037166879e-13	8.619070781699742e-12	5.370523490615023e-09
406.3306	0.12795258552198485	4.9914429604617105e-14	1.0697384961756497e-10	1.237643914728174e-08
406.4298	0.1342756766071901	3.920357295384253e-15	1.1539114797689097e-09	2.7930799064117766e-08
406.5291	0.14122013179960008	2.7856800053127797e-16	1.0869948939066117e-08	6.182900338385524e-08
406.6284	0.14886647806705322	1.795292865506685e-17	8.920131638055241e-08	1.3414102763077697e-07
406.7277	0.15731647114755737	1.0493923256659471e-18	6.376814334603893e-07	2.852275746799543e-07
406.8766	0.17176059394895793	1.2368088421204292e-20	9.402625520664467e-06	8.513214803610866e-07
406.9759	0.18278996428393318	5.663993710746697e-22	4.761389271325184e-05	1.7213893630510875e-06
407.0752	0.195141766043871	2.352563985430459e-23	0.00021004240760494558	3.4113410130572665e-06
407.1745	0.20902423893817118	8.862548541721554e-25	0.0008071774784121139	6.625698252687845e-06
407.2738	0.22467677959143828	3.028128567178989e-26	0.0027022145831405	1.2612427078406042e-05
407.3731	0.24236891288099355	9.384010705670964e-28	0.007880601743455706	2.3530230436827287e-05
407.4724	0.2623937168408453	2.6375529048389646e-29	0.020021088107135425	4.3024337289953624e-05
407.5716	0.28502737176026516	6.748985836276266e-31	0.04427794025400043	7.70569752717015e-05
407.6709	0.3105917901602948	1.5605974888231188e-32	0.08537948656057666	0.00013534111878350032
407.7702	0.33926634687690077	3.2729682440741214e-34	0.14341957034074027	0.0002329743260025434
407.8695	0.37110187432896824	6.225742875093052e-36	0.2098708129694276	0.00039304915135622657
407.9688	0.4059110476459093	1.0740860341271621e-37	0.2675373506171658	0.0006498994343806194
408.0681	0.44319259360432384	1.6806816559403523e-39	0.29710198169771834	0.0010531881214981779
408.1674	0.4821107769634682	2.385230483120265e-41	0.28741896730001265	0.0016727315277886698
408.2666	0.5215294538845465	3.0838891138053408e-43	0.24228080704904378	0.002602662716071572
408.3659	0.5603392829742245	3.6006702211841314e-45	0.17789621999268357	0.003970708234531949
408.4652	0.5974223367421873	3.812996800069612e-47	0.11378975911001006	0.005937157356242147
408.5645	0.6319723305814638	3.662250402947774e-49	0.06340571224068978	0.008700608747338632
408.6638	0.6635190786807601	3.190275075611989e-51	0.03077813796994529	0.012496293496898316
408.7631	0.691900930371275	2.5206162233964865e-53	0.013015026249027908	0.01759030181670975
408.8623	0.7171622388131803	1.8153693333493964e-55	0.004799581893634242	0.02425992875595528
408.9616	0.7395643233323532	1.1800034932695249e-57	0.0015404370123364714	0.03280283587017843
409.0609	0.7593607119215586	6.956649009783242e-60	0.0004306983748251818	0.04347041215905244
409.1602	0.7768521839435973	3.719764042172806e-62	0.00010490381215400997	0.05645944725458695
409.2595	0.7923301358996713	1.803969508305229e-64	2.2258610888719357e-05	0.07186873212436176
409.3588	0.8060614721155541	7.93490066036628e-67	4.114277624905849e-06	0.08966105438345752
409.4581	0.8182826912784538	3.165572732163582e-69	6.6248779190094e-07	0.10962969283438566
409.5573	0.8291888171861044	1.1519712215024727e-71	9.311938339133281e-08	0.13135248919689854
409.6566	0.8389780501287583	3.7808733862530625e-74	1.1380522710987716e-08	0.15427389992295418
409.7559	0.8477892058607924	1.1254887000996233e-76	1.2116385357911072e-09	0.17758533808322297
409.8552	0.85575021279969	3.0387057309054684e-79	1.1237577363683189e-10	0.2003467269099249
409.9545	0.8629697898021003	7.44105734720338e-82	9.079481773360804e-12	0.22152252556853982
410.0538	0.8695404160692721	1.6526434209936282e-84	6.390549116825415e-13	0.2400568116889061
410.1531	0.875540912502662	3.329064176099758e-87	3.9183573668758616e-14	0.254959189847339
410.2523	0.8810333349249697	6.121284525550272e-90	2.0992787438501243e-15	0.2653839540829563
410.3516	0.8860864570312602	1.0144374573741106e-92	9.769533045207398e-17	0.27074540378751577
410.4509	0.8907441768401316	1.524777546168244e-95	3.9606480640994976e-18	0.2707123207757926
410.5502	0.895049376871215	2.0786731187284552e-98	1.3987736748723441e-19	0.2652866823187131
410.6495	0.8990392078618142	2.5701851648839506e-101	4.303456291600248e-21	0.2547905827298323
410.7488	0.9027459713183195	2.8823129035855037e-104	1.153389761617299e-22	0.23983457547217346
410.8481	0.9061978530109118	2.931678488146208e-107	2.692920528185589e-24	0.22125888053782855
410.9474	0.9094195337751214	2.7045191155674455e-110	5.477214275555968e-26	0.20005532962490596
411.0466	0.9124297632758684	2.2792014977221385e-113	9.744930232931718e-28	0.17730349408653232
411.1459	0.9152537132345386	1.7298009796028087e-116	1.504363407874767e-29	0.15399141324946672
