energy	step1_	g1_	g2_
282.2074	0.024771848913327375	2.5234163974099863e-146	4.84299294682643e-27
282.2779	0.024942561512840643	2.2369941603798377e-142	1.431220823832487e-26
282.3483	0.02511539122028721	1.7293870326893046e-138	4.1805758623629165e-26
282.4188	0.025290878324942118	1.195961129716955e-134	1.2106671268600023e-25
282.4893	0.025468829751801668	7.304292018847877e-131	3.470628935149254e-25
282.5597	0.025649039872911904	3.8924239248170995e-127	9.834380451238047e-25
282.6302	0.025832074225947747	1.8545140719050273e-123	2.7626525590442865e-24
282.7007	0.026017733799210373	7.80326451962566e-120	7.682460325171921e-24
282.7711	0.026205806273074537	2.866374903662037e-116	2.1117792001425393e-23
282.8416	0.026396884276654153	9.408667604708622e-113	5.75464312201793e-23
282.912	0.02659048566427369	2.6970357710457345e-109	1.5501541861130406e-22
282.9825	0.02678722223605034	6.906066828154098e-106	4.139430704549465e-22
283.053	0.02698688469006356	1.561748303562768e-102	1.0942111290792433e-21
283.1234	0.027189249022920046	3.0859172886793807e-99	2.8593478306654424e-21
283.1939	0.02739495762209945	5.443941940470906e-96	7.406675734437887e-21
283.2644	0.027603794787929497	8.48162143319062e-93	1.8992164600997225e-20
283.3348	0.02781552919215759	1.1552255376337319e-89	4.8144833254471403e-20
283.4053	0.02803083620343818	1.4040452915093372e-86	1.209752845989139e-19
283.4758	0.02824949357497883	1.5070638420114446e-83	3.009112394786198e-19
283.5462	0.028471262427941974	1.4149275561394458e-80	7.399851267241353e-19
283.6167	0.028696853764938482	1.1847689789494782e-77	1.803684526031313e-18
283.6872	0.028926038664506194	8.761315917028058e-75	4.352040814956203e-18
283.7576	0.029158570485759438	5.670045615813434e-72	1.0382140472306452e-17
283.8281	0.029395198813122882	3.27092929046515e-69	2.4547943356079786e-17
283.8986	0.02963568795273383	1.6664487240084216e-66	5.745636091569585e-17
283.969	0.02987978331164476	7.43402171517989e-64	1.3296624877056e-16
284.0395	0.030128276341321567	2.9545650869575317e-61	3.049721992500477e-16
284.11	0.03038092451774158	1.03704951843748e-58	6.924268150132545e-16
284.1804	0.030637465136565	3.1889376078877755e-56	1.5544850109103818e-15
284.2509	0.03089873518866517	8.731741936120746e-54	3.458565434809967e-15
284.3214	0.03116448531493703	2.1115042387270415e-51	7.617285726126767e-15
284.3918	0.03143444458287451	4.475619357905231e-49	1.65890786762453e-14
284.4623	0.03170949964106976	8.442929179233617e-47	3.580324151008707e-14
284.5327	0.031988993858221806	1.3965492295305825e-44	7.641043784869095e-14
284.6032	0.032273849518765205	2.055157873857422e-42	1.616026957332949e-13
284.6737	0.032563806058994005	2.6709780886043516e-40	3.383290625378176e-13
284.7441	0.032858578740294096	3.0454262470140185e-38	7.004530093019706e-13
284.8146	0.03315914755442169	3.087608013145251e-36	1.4370290292414965e-12
284.8851	0.033465245486489444	2.76460079538922e-34	2.918413790093389e-12
284.9555	0.033776579596574444	2.1728254907440726e-32	5.861326697574921e-12
285.026	0.03409419327035118	1.5176934290935428e-30	1.166468694350604e-11
285.0965	0.03441781340807555	9.362233238105658e-29	2.297973617031728e-11
285.1669	0.034747139075399364	5.072085119135341e-27	4.477168690235447e-11
285.2374	0.035083283514962774	2.440792570534612e-25	8.643133879307274e-11
285.3079	0.03542596808623032	1.0373167924576461e-23	1.6517100595247194e-10
285.3783	0.03577488422911161	3.8737638608197667e-22	3.1217749641753606e-10
285.4488	0.03613122241936428	1.2842885656831952e-20	5.846015986320661e-10
285.5193	0.03649469924854621	3.7603501348355665e-19	1.0837102858759711e-09
285.5897	0.03686499911114071	9.679761962545357e-18	1.9869655382610796e-09
285.6602	0.0372433981715245	2.2109518446297662e-16	3.609436146196573e-09
285.7307	0.0376296093208702	4.4599509852729925e-15	6.490575156521976e-09
285.8011	0.03802331076487697	7.913728312817081e-14	1.1544355241148293e-08
285.8716	0.03842587409489183	1.2453197494655246e-12	2.0342734632943517e-08
285.942	0.03883642057785331	1.7243834393524688e-11	3.545717679458422e-08
286.0125	0.03925639156142438	2.1168131244918737e-10	6.122652849701633e-08
286.083	0.039685497222372725	2.294919160950088e-09	1.0465739257453808e-07
286.1534	0.040123408384434726	2.1904584399025306e-08	1.7695958428300225e-07
286.2239	0.04057168160917862	1.8525452597417354e-07	2.964150125436528e-07
286.2944	0.04103002839159245	1.3836900973002403e-06	4.914972512655346e-07
286.3648	0.04149811772910231	9.103766630172993e-06	8.06184848980911e-07
286.4353	0.04197763595302845	5.304446322748625e-05	1.3099398717617361e-06
286.5058	0.04246829897469513	0.0002729576044447624	2.106991978490204e-06
286.5762	0.042969776783717016	0.0012379187454300959	3.352631187520195e-06
286.6467	0.0434839025830056	0.004969311432547422	5.284368963203322e-06
286.7172	0.04401040078261161	0.01761718389051443	8.245087656505218e-06
286.7876	0.04454894615312913	0.05507418598347305	1.272704370347506e-05
286.8581	0.04510153898948478	0.1523131135814278	1.9459223715932326e-05
286.9286	0.04566791757054833	0.372016927472968	2.9452236430236593e-05
286.999	0.046247766517109073	0.8016576821390573	4.410216363134922e-05
287.0695	0.04684327728584264	1.5274369809788633	6.541065454141285e-05
287.14	0.047454209087778566	2.570240957461672	9.603551844197731e-05
287.2104	0.048080263160762346	3.8178139009986576	0.00013950278028858457
287.2809	0.048723850983032425	5.011574959966407	0.0002007067991981056
287.3513	0.049383811942264134	5.809209820523569	0.0002857073300732787
287.4218	0.05006272309804713	5.948746681734792	0.0004028064685627997
287.4923	0.05076040064795918	5.379848979345705	0.0005621682074502827
287.5627	0.05147659504422146	4.29860534761456	0.0007763095676331735
287.6332	0.05221416559531332	3.032641826889856	0.0010616970611678016
287.7037	0.052972981346600646	1.8895172574166723	0.0014373452009851571
287.7741	0.05375284070009341	1.0406939043564072	0.0019254803932883644
287.8446	0.0545569339231947	0.505826630321892	0.002554438200913065
287.9151	0.05538520260117766	0.21712836667421131	0.0033546444061997786
287.9855	0.05623751277331507	0.08243343007534178	0.004359471760225316
288.056	0.05711744592975081	0.02760369268806713	0.0056102316191287745
288.1265	0.05802504251712384	0.008163326981485232	0.0071469789973933155
288.1969	0.058960262784302685	0.0021363315594235197	0.009009884898321668
288.2674	0.059927154758752654	0.0004928532241140222	0.011247520380982142
288.3379	0.06092589315918295	0.0001004159598473886	0.013899178303728815
288.4083	0.06195656852444518	1.8114187781482454e-05	0.01699789816748343
288.4788	0.06302379057147146	2.8790747752242505e-06	0.020583697562744845
288.5493	0.06412791628652213	4.041319810157458e-07	0.02467438590134694
288.6197	0.06526921583854059	5.025207499873602e-08	0.029272634449285555
288.6902	0.06645298226172523	5.502666742350612e-09	0.03438591628753263
288.7607	0.0676798204151177	5.321433262709413e-10	0.03998473161035481
288.8311	0.06895024812608344	4.561146875311107e-11	0.04601707412736686
288.9016	0.07027039918114968	3.440950323359041e-12	0.05243586262985604
288.972	0.07163923518197869	2.301578316873515e-13	0.05913730831019664
289.0425	0.07306356125323797	1.3545000950176158e-14	0.06603387757001168
289.113	0.07454461351020975	7.039932880209494e-16	0.07299058402184291
289.1834	0.07608355117065009	3.245865583538054e-17	0.07985632770039912
289.2539	0.07768840077656416	1.3160395672287838e-18	0.08649782848458601
289.3244	0.07936097466176348	4.712415313971312e-20	0.09274614479668661
289.3948	0.08110302593446087	1.4976841340244459e-21	0.09843458670401574
289.4653	0.08292413799633881	4.1835385762905575e-23	0.10342706847920914
289.5358	0.08482692473481694	1.032056618192983e-24	0.10757602676815521
289.6062	0.08681397400510693	2.26097026835524e-26	0.11075841079650148
289.6767	0.08889688425319014	4.351144773515809e-28	0.11288957341446151
289.7472	0.09107939528740638	7.395174257898913e-30	0.1139005286294677
289.8176	0.09336527916540446	1.116745981064846e-31	0.11376176338547747
289.8881	0.09576878556883546	1.480635690011871e-33	0.11247708556627463
289.9586	0.09829525317949162	1.7337170704381129e-35	0.11008460426841644
290.029	0.10095015162073584	1.8046744483560178e-37	0.10666121364021122
290.0995	0.10375127988338993	1.6484577401526058e-39	0.10229746776193346
290.17	0.10670627372793044	1.3298203145106296e-41	0.09712209401017495
290.2404	0.10982306330832436	9.541755083124607e-44	0.0912866632245874
290.3109	0.11312428475772889	6.004714273022993e-46	0.08492906019930416
290.3813	0.11661580669570448	3.362246622470011e-48	0.0782265060912242
290.4518	0.12032448183885751	1.6506028280932433e-50	0.07131793348791349
290.5223	0.12426433669516332	7.156353746044929e-53	0.06436330835398935
290.5927	0.12845021878414162	2.7621272157177116e-55	0.057510260410872364
290.6632	0.13291739528058727	9.342042295837532e-58	0.05086051746262101
290.7337	0.13768624896910064	2.790462416927311e-60	0.04452572567702065
290.8041	0.14277854939149603	7.424081187319405e-63	0.038594670806523804
290.8746	0.14824149450068763	1.7299199133686289e-65	0.03310955962245403
290.9451	0.1541048413876	3.5599629622530747e-68	0.028117341740743998
291.0155	0.16040055523462426	6.528699392375694e-71	0.02364285691328623
291.086	0.16719276070937367	1.0480815865204496e-73	0.019675086050015063
291.1565	0.17452478490321596	1.4859346362684585e-76	0.016207951130123847
291.2269	0.18244315375885725	1.8784323399363397e-79	0.013220965528183562
291.2974	0.19103540662309354	2.0775386332753007e-82	0.010672606139065066
291.3679	0.20036330462871701	2.0292654290892092e-85	0.00852849862504403
291.4383	0.2104922772138333	1.768273201933221e-88	0.006748651440223502
291.5088	0.2215394331201347	1.3473736519575326e-91	0.0052846341966439545
291.5793	0.2335871008609733	9.06698572238661e-95	0.004096449969047814
291.6497	0.24671854673255278	5.446131184905276e-98	0.00314457117470506
291.7202	0.2610781875582347	2.858985262726759e-101	0.0023886360636291197
291.7906	0.27673298090728904	1.3401055331097695e-104	0.0017968510541212493
291.8611	0.29383029540887934	5.4879703420723e-108	0.001337508240017837
291.9316	0.312438430074694	1.984818080098506e-111	0.0009855431536147958
292.002	0.3325923071266067	6.413017852168693e-115	0.000719195727779574
292.0725	0.3543746330211024	1.809340637575013e-118	0.0005193045282023442
292.143	0.3777279160861744	4.5083167587998054e-122	0.00037118627702857626
292.2134	0.4025144736821443	1.0040857921004317e-125	0.0002627681510155105
292.2839	0.42861984259419933	1.951703512314816e-129	0.0001840510752096822
292.3544	0.4557373529779227	3.3503722418429106e-133	0.00012761413592048574
292.4248	0.48347596184181935	5.143563657990208e-137	8.763729362949092e-05
292.4953	0.5115071410029636	6.887986293877548e-141	5.954498830840914e-05
292.5658	0.5393613474609524	8.146229210446188e-145	4.0049422930514424e-05
292.6362	0.5665859258053182	8.62069620714833e-149	2.668061252830402e-05
292.7067	0.5928951741604559	7.953451355759379e-153	1.758501227547038e-05
292.7772	0.6179622721275453	6.480449249699218e-157	1.1473194270527623e-05
292.8476	0.6415540579837286	4.7272164357695584e-161	7.414694129634922e-06
292.9181	0.6636219621189642	3.004719313859092e-165	4.740571960077335e-06
292.9886	0.6840897253592041	1.6867026469837888e-169	3.0002886429368265e-06
293.059	0.702948452114619	8.481126821563026e-174	1.8809674958625555e-06
293.1295	0.7203104590955446	3.713959061945917e-178	1.1665662751224923e-06
293.2	0.7362338912521592	1.4363387047033234e-182	7.16196731703221e-07
293.2704	0.750800272126008	4.978362909045812e-187	4.355719932383624e-07
293.3409	0.7641584814836532	1.501949188030586e-191	2.620467010952001e-07
293.4113	0.7763779965860684	4.062438940447811e-196	1.5617611997571257e-07
293.4818	0.7875971580915422	9.56102539158704e-201	9.207234619624679e-08
293.5523	0.7978952479465397	1.987276481744407e-205	5.37326899367597e-08
293.6227	0.807349237029705	3.7051394392922135e-210	3.106589533154663e-08
293.6932	0.8160677525219313	6.007687239888915e-215	1.7765976313979146e-08
293.7637	0.8241107515604861	8.602927636576177e-220	1.005747760930554e-08
293.8341	0.8315345057510138	1.1056233233543905e-224	5.640839286052994e-09
293.9046	0.8384194496165703	1.2350799833240989e-229	3.1292449034065036e-09
293.9751	0.8448076465446275	1.2184821492034843e-234	1.7184233778876184e-09
294.0455	0.8507382291916805	1.0794306632001689e-239	9.349624823883032e-10
294.116	0.8562700982065568	8.307450757736287e-245	5.031304874858269e-10
294.1865	0.8614320357778802	5.64646963290177e-250	2.68016712808384e-10
294.2569	0.8662508664073904	3.4479998193450435e-255	1.4146051926937425e-10
294.3274	0.8707700939364593	1.828207105341056e-260	7.384350823118516e-11
294.3979	0.8750093156198887	8.560906363220788e-266	3.81578754756355e-11
294.4683	0.8789869207916455	3.603500962096521e-271	1.9537406734648796e-11
294.5388	0.8827355776071412	1.3163395610407744e-276	9.893150467610359e-12
294.6093	0.886268667558246	4.2466593139547306e-282	4.9590341900623544e-12
294.6797	0.8895988678431681	1.2321596273053175e-287	2.4631405492680625e-12
294.7502	0.8927511857088224	3.100954538331814e-293	1.2098945307415493e-12
294.8206	0.895730685167946	7.021289333747597e-299	5.889086380871915e-13
294.8911	0.8985585212338554	1.3784602002788843e-304	2.834667182809566e-13
294.9616	0.9012418558571559	2.39005441783956e-310	1.3506754889996315e-13
295.032	0.903787609642216	3.73030126e-316	6.37765158200021e-14
