energy	step1_	g1_	g2_	g3_	g4_
396.5952	0.015096308645339104	1.3950807965666752e-19	2.2379891522604123e-24	1.9077223494620316e-46	3.1049344567454497e-49
396.7953	0.015433626518622756	2.6536253285669172e-18	4.2472947068103915e-23	2.339337070526261e-44	2.0496911889412448e-47
396.9943	0.01578436742631056	4.4800923377906664e-17	7.313814676116136e-22	2.4974525198708527e-42	1.2193417851512336e-45
397.1942	0.01615310532611474	6.9078852844813e-16	1.1760564299509833e-20	2.4332565538519204e-40	6.811615619487177e-44
397.3943	0.016539863214797945	9.626810605675374e-15	1.7476277027470548e-19	2.1271441717440822e-38	3.520890106386544e-42
397.5942	0.016945162349664453	1.2061790106270065e-13	2.3870601381322848e-18	1.6536478708198473e-36	1.670734254763718e-40
397.7932	0.017368839019135596	1.3479066203858623e-12	2.971580769389614e-17	1.1269629060554708e-34	7.185169581648074e-39
397.9933	0.017816747611072957	1.376240027467347e-11	3.457599121453823e-16	7.023442557436955e-33	2.9080756520089325e-37
398.1932	0.01828785891485287	1.2637338751792608e-10	3.698806398795373e-15	3.8938070656126035e-31	1.0807696187442445e-35
398.4522	0.018936573850427924	1.915708164732282e-09	7.062906655132941e-14	5.982578867181839e-29	1.0360811382958784e-33
398.6013	0.019331305140085124	8.466843314566406e-09	3.6258839517848443e-13	9.961082599110538e-28	1.3465499493412012e-32
398.7513	0.019745358395984135	3.562247562434529e-08	1.7957686229671662e-12	1.5834025399507436e-26	1.6978222199523937e-31
398.9012	0.020177217982686575	1.412454991869655e-07	8.485969715474733e-12	2.3578383914020324e-25	2.041296177853996e-30
399.0512	0.02062867112641201	5.287754481826041e-07	3.834132029963222e-11	3.3009547744425424e-24	2.3480366694272105e-29
399.2012	0.021100758013427316	1.867267494043337e-06	1.6545906153259198e-10	4.336868851276423e-23	2.5796550370658544e-28
399.3513	0.021595261232405943	6.224726950769934e-06	6.826142629255835e-10	5.356021055820012e-22	2.7111294677708452e-27
399.5002	0.02210921849713421	1.9398227300885833e-05	2.660784467994845e-09	6.0881526704727734e-21	2.672032592986547e-26
399.6502	0.022652272644930856	5.751513548349517e-05	1.0007828539180822e-08	6.613627057231291e-20	2.5586163852772243e-25
399.8003	0.023223016664310234	0.00016096451826670612	3.5982516138622576e-08	6.75255429436762e-19	2.3434768680816732e-24
399.9503	0.023822799012204295	0.0004246298607699334	1.234594126083979e-07	6.459906172499352e-18	2.0470413459158333e-23
400.1003	0.024454320716211307	0.0010566459656112302	4.0458967013906515e-07	5.799566209330689e-17	1.7078529117393376e-22
400.2492	0.025115149656213007	0.002465255552437199	1.2560352944377918e-06	4.811592220676069e-16	1.3405859785382101e-21
400.3993	0.02581838224067377	0.005463436175907222	3.758936581642122e-06	3.811293352207486e-15	1.0220253065055108e-20
400.5493	0.026561526047857525	0.011414836366592681	1.073648815124543e-05	2.829170558720849e-14	7.431768380613264e-20
400.6992	0.027348068516907784	0.022486616696518	2.9270724960453223e-05	1.9683587252898918e-13	5.154969570304343e-19
400.8492	0.028183061622094892	0.041804402672593166	7.627106963322685e-05	1.2868613160208381e-12	3.4196820586918656e-18
400.9992	0.029070500839810148	0.07330920644538354	0.00018982093206282744	7.895332375304095e-12	2.1667223349067818e-17
401.1483	0.030009619811555567	0.12091990085134288	0.0004489412245211864	4.499259428845541e-11	1.2973193968151396e-16
401.2982	0.03101679405960618	0.1886875154897668	0.001019009844918337	2.429339603287523e-10	7.492012868639385e-16
401.4482	0.032094424659238	0.2778206418861388	0.00221039205535773	1.2323791829995034e-09	4.137354284081134e-15
401.5982	0.03324934650135834	0.38585527826065735	0.004579500897727927	5.866940081163243e-09	2.1822515693196204e-14
401.7483	0.03449100790129532	0.5055832891608211	0.00906600272265171	2.6237008174746283e-08	1.1005412676032768e-13
401.8972	0.035817489464261464	0.6239232194836158	0.01705738593010094	1.0887325218916061e-07	5.235523551373051e-13
402.0472	0.03726059580679434	0.7275719237810205	0.030801224327924665	4.2855438884172697e-07	2.4068492359841127e-12
402.1972	0.03882426366561866	0.800311957833861	0.05312285290386705	1.583076396231884e-06	1.0568067123258472e-11
402.3473	0.04052535559841926	0.8303926428532595	0.08753678048705506	5.492369050472247e-06	4.436173909677647e-11
402.4973	0.04238012116805084	0.8126941635229584	0.13772300761604195	1.7867327427678307e-05	1.7768786014489972e-10
402.6472	0.04441022148401847	0.7503104116921405	0.2069040827300479	5.450755553890838e-05	6.79177092069791e-10
402.7962	0.046629049773803166	0.654128542465311	0.2963014842291557	0.0001551104578812685	2.4607953973381677e-09
402.9463	0.04909842233270442	0.53745636169746	0.4064007390400412	0.0004174977096713112	8.598050441457002e-09
403.0963	0.05183956732150354	0.4165913949623312	0.5322736788980563	0.001053859244878577	2.8669079929511535e-08
403.2462	0.054899472922952594	0.304659751796407	0.6657561946813152	0.0024950646002690987	9.12339946004398e-08
403.3962	0.05834135822864981	0.2101242905754242	0.7954718680285905	0.005546909118270492	2.775233727196641e-07
403.5462	0.06223774912008359	0.13670236471417435	0.9078045205482135	0.011572614374346762	8.063068428611361e-07
403.6953	0.06665504337796349	0.08415160091734478	0.989128414512959	0.02257119790724347	2.2241237507937245e-06
403.8452	0.07176502827126068	0.048748148810557765	1.030031643070845	0.04147208486586632	5.892770752515235e-06
403.9952	0.07771079642421487	0.02662825722472216	1.0245301629765016	0.07154079333292297	1.492199853996166e-05
404.1452	0.08470513936349604	0.013720373991339112	0.9733226672617312	0.11581446640599907	3.609045411755959e-05
404.2953	0.09304930446927602	0.006665157168638601	0.8831043842900143	0.1759928087948993	8.34163860357929e-05
404.4442	0.10306336399932935	0.0030737610697534317	0.7662581593121368	0.2503104195325649	0.0001830086408703794
404.5942	0.11548744943447568	0.0013297749886604696	0.6344740545890886	0.3350467725511458	0.0003857834705370777
404.7443	0.13113485550612086	0.0005423215268627337	0.5016905742723734	0.4209203740815721	0.0007770867613496013
404.8943	0.15129949209024246	0.00020874936924184824	0.3789459020999319	0.4961699027475068	0.0014943215113109528
405.0443	0.17802569131248425	7.579352242321306e-05	0.27338607809798765	0.548873244873241	0.0027445837822850836
405.1942	0.2144615497734002	2.59774360978209e-05	0.1884290907952746	0.5698010384130549	0.004812943457746187
405.3433	0.2650580469901254	8.451175392209468e-06	0.12434425870459467	0.5553359644694823	0.008040569489053786
405.4933	0.3362932351280112	2.576373849095402e-06	0.07818646606037967	0.5079429027746144	0.012871403958219008
405.6432	0.43062139631333046	7.41495526044095e-07	0.0469731412495331	0.4360522969211753	0.019674633423645175
405.7932	0.5382832062878733	2.0113812225402405e-07	0.026945395211693948	0.3512678629236581	0.028732596088808383
405.9432	0.6374886413505465	5.14658131098474e-08	0.014763095129112731	0.26555191280216073	0.04007753412257245
406.0923	0.7140338281384931	1.253030164593467e-08	0.0077566670097787066	0.18882016020073514	0.05330856436747149
406.2422	0.7693956826743839	2.8566177832694364e-09	0.0038798133313313354	0.12579811070890615	0.06784149017428673
406.3922	0.8088926545162389	6.137075003253378e-10	0.001852722424074674	0.07863259099507892	0.08247611017456533
406.5422	0.8376467816724661	1.2436819096858784e-10	0.0008450215631220535	0.046125621308973845	0.09576765819021778
406.6923	0.8592013238266268	2.3746973035348358e-11	0.00036790516897749326	0.025381133437464842	0.10621620628170862
406.8423	0.875797755964217	4.281701817414899e-12	0.0001530720297877269	0.013111567457569077	0.11250815461977932
406.9912	0.8888255187004706	7.378998190835665e-13	6.12527163455636e-05	0.006391690530162245	0.11383365136734232
407.1412	0.8994309335109869	1.1843190885394677e-13	2.325666083293779e-05	0.002909269873490802	0.11003375581670817
407.2913	0.9081601767621718	1.790703128730811e-14	8.428046834270206e-06	0.0012419610412092645	0.10158026410270916
407.4413	0.915451353589414	2.557144038619108e-15	2.9191167492941883e-06	0.0004978290110068531	0.08957093880757182
407.5912	0.9216266380831303	3.449167216796105e-16	9.664086690893029e-07	0.00018739408292150749	0.07544651553238498
407.7402	0.9268939387923313	4.444235605595586e-17	3.077627983427308e-07	6.663076136118649e-05	0.060788608300222396
407.8903	0.9314944486967038	5.321178884543712e-18	9.283402613348542e-08	2.2067539808237126e-05	0.04671077616829226
408.0403	0.935515185188747	6.018148464116334e-19	2.676678948956126e-08	6.863644398690661e-06	0.03428778615765953
408.1902	0.9390581632355381	6.430028710622501e-20	7.37773919837898e-09	2.0050837717318616e-06	0.02404524292175069
408.3402	0.942206973563629	6.470860531967119e-21	1.9406244736140263e-09	5.492551297829473e-07	0.016102030236805898
408.4902	0.9450216189392361	6.142564954172594e-22	4.875482653537056e-10	1.411974641074435e-07	0.010298880360464585
408.6393	0.9475378101343537	5.581353583901873e-23	1.1801312122609977e-10	3.4361992106693366e-08	0.006311040371524232
408.7892	0.9498249408958367	4.723680420946737e-24	2.708164093423813e-11	7.790371275191063e-09	0.0036847526962021397
408.9392	0.9519033820101707	3.7648967836942815e-25	5.930041787767452e-12	1.6558781786056029e-09	0.0020541132642264213
409.0892	0.9537990837056676	2.830506988664065e-26	1.2402191653674879e-12	3.3030092170617603e-10	0.0010937003097090292
409.2393	0.9555361199708369	2.0037307043433065e-27	2.4747084612335307e-13	6.176010461725477e-11	0.0005559397904085697
409.3893	0.957131475944942	1.340327055607386e-28	4.7213614087449896e-14	1.0849091799908817e-11	0.00027002515568493713
