energy	step1_	g1_	g2_	g3_
279.4969	0.01626293117290949	2.0927810138207655e-41	1.2561786948612028e-42	8.075503302285245e-51
279.6293	0.016497643201350592	1.8153256168659237e-39	6.155294386467956e-41	3.082084899300119e-49
279.7618	0.01673940811882227	1.417539015841601e-37	2.791236400584195e-39	1.1122299364368891e-47
279.8942	0.016988166810198334	9.899391864774065e-36	1.1646470971051059e-37	3.774581698648433e-46
280.0266	0.01724442312480738	6.203276733576107e-34	4.484411042261745e-36	1.2079593825064652e-44
280.159	0.0175085208705641	3.4879716036300984e-32	1.5934183504757354e-34	3.645399124451825e-43
280.2914	0.017780825180052095	1.7598022564334556e-30	5.2247745078538573e-33	1.037402022556001e-41
280.4238	0.018061724188073724	7.966983995994415e-29	1.5809517860568127e-31	2.7839302353353135e-40
280.5563	0.01835185334600666	3.24534193094736e-27	4.4254961686780365e-30	7.062021860753995e-39
280.6887	0.0186512148436115	1.1828598233622107e-25	1.140284881031576e-28	1.6851538852863766e-37
280.8211	0.0189604931211834	3.8685235564314244e-24	2.7113032795822794e-27	3.7919213982792535e-36
280.9535	0.019280188625167085	1.1352626645768948e-22	5.949167120414997e-26	8.04615396580576e-35
281.0859	0.019610836007665253	2.989417758043292e-21	1.2046130813117395e-24	1.6100026946815848e-33
281.2183	0.01995300709576652	7.063435919554734e-20	2.2508798705756735e-23	3.037904513223092e-32
281.3508	0.020307586527807026	1.5009580597851476e-18	3.889477046528984e-22	5.417083827621999e-31
281.4832	0.020674695902332386	2.8552273963255813e-17	6.188655081708045e-21	9.088920891733083e-30
281.6156	0.02105530271603002	4.873623680383255e-16	9.086877644543719e-20	1.4380313120120632e-28
281.748	0.021450164145131147	7.464529290212267e-15	1.231250496097992e-18	2.145525169437915e-27
281.8804	0.021860094988231788	1.0258692355110088e-13	1.539541828829912e-17	3.018617855979611e-26
282.0128	0.022285973244798075	1.2650879834051668e-12	1.7764373834201613e-16	4.0049021687346124e-25
282.1453	0.022729087412188407	1.4023593345523572e-11	1.89489151655945e-15	5.020004148473193e-24
282.2776	0.023189438182324926	1.3899385946215782e-10	1.8586890253942038e-14	5.911357398098369e-23
282.4101	0.02366952669316579	1.2403418410231145e-09	1.6881660261921974e-13	6.588391223612412e-22
282.5425	0.024169489284484195	9.9149642776024e-09	1.4125393749610238e-12	6.911636825053104e-21
282.6749	0.024690985392922728	7.111808573972512e-08	1.090684913232389e-11	6.837411084519809e-20
282.8073	0.025235433828515664	4.57728661923133e-07	7.771616922798873e-11	6.378399623608304e-19
282.9398	0.025804819955249424	2.646870650226142e-06	5.117305970898905e-10	5.62010742733004e-18
283.0721	0.02639951326696858	1.3698772125614038e-05	3.1008128359813585e-09	4.6545698151108705e-17
283.2046	0.027023159647904783	6.376956475163804e-05	1.738519340651677e-08	3.6466361980728225e-16
283.337	0.02767640287095508	0.00026604955533104864	8.982942128600154e-08	2.689863410205698e-15
283.4694	0.02836192507384464	0.0009959803424620043	4.28322623045607e-07	1.8710149942703873e-14
283.6018	0.029082172528779746	0.0033456317835532834	1.8846762660310832e-06	1.2272514686480203e-13
283.7343	0.029840431487100805	0.01009226819802941	7.660591654086309e-06	7.60128785784349e-13
283.8666	0.030637925924120027	0.02727409348849769	2.8675319563102687e-05	4.427656303173912e-12
283.9991	0.03148038098735637	0.06623204545212127	9.924480706172103e-05	2.4384144233161883e-11
284.1315	0.03236962135469444	0.14421703986700438	0.00031666534332629035	1.264682665813085e-10
284.2639	0.03331037078327614	0.28177608559179684	0.0009324093414179274	6.185358346851529e-10
284.3963	0.03430722027401148	0.49400441582057125	0.0025335298904580767	2.8527086353307382e-09
284.5287	0.03536532077448532	0.7771353694827052	0.006352706416295206	1.2406783963953144e-08
284.6611	0.03649047083340909	1.0969874636016321	0.014699578253491411	5.0882714872686526e-08
284.7936	0.03769015619706938	1.3896503421500526	0.03140508345818048	1.969811278072526e-07
284.926	0.03896999934920014	1.5792586823794668	0.06187943851449975	7.183480644515819e-07
285.0584	0.04033933493018038	1.6104236976860355	0.11251388302337395	2.4703272218249693e-06
285.1908	0.04180783312380648	1.4735544116192705	0.18879009204906322	8.010936592450705e-06
285.3232	0.0433866002230181	1.209849491342303	0.2923247720305403	2.4497476872379488e-05
285.4556	0.045088453560461046	0.8913241226825559	0.4177008677176902	7.064292455359357e-05
285.5881	0.04692970751485768	0.5890139302023457	0.5508787333302261	0.00019223999301094832
285.7205	0.04892493824943953	0.3493595548070416	0.6702797326611165	0.0004929357394490501
285.8529	0.051095834606947964	0.18593400749687583	0.752609169192621	0.0011919173019174245
285.9853	0.05346643245952212	0.0887941142142747	0.7798233927472443	0.0027177605668530893
286.1177	0.05606531284897945	0.03804947540029564	0.7456522776914597	0.00584366772737347
286.2501	0.058926715745918186	0.014630269038292546	0.6579452791575034	0.011848655885375309
286.3826	0.062094510787732676	0.005043456153412328	0.5356436446860916	0.02266547816258363
286.515	0.06561433376884816	0.001561257846312203	0.4024664713406454	0.04086464302205363
286.6474	0.06955043704565361	0.0004336707822461423	0.2790594872601795	0.06947679647432344
286.7798	0.0739798613243139	0.00010808983095336286	0.178557137151628	0.11138869424409069
286.9122	0.07899946131260863	2.4174007738837365e-05	0.1054316425915731	0.16840372460511063
287.0446	0.08473252778444869	4.851227269719889e-06	0.057448417199771576	0.24008859172952565
287.1771	0.09134352273014587	8.723958466657998e-07	0.028870865330656182	0.3228405291072536
287.3094	0.0990247105052089	1.4114808286356954e-07	0.013403933559574609	0.4092031264605394
287.4419	0.10807695777298731	2.0433565442528403e-08	0.005735720412996494	0.4892552196248399
287.5743	0.11885705992088873	2.658080640075115e-09	0.0022663243466387165	0.5515349701467898
287.7067	0.13188919609947114	3.102639351472353e-10	0.0008263603891214414	0.586299997863342
287.8391	0.14790025155662392	3.249627531359862e-11	0.0002780547092990892	0.5877274607480076
287.9716	0.16794331672491916	3.0484676122542632e-12	8.625961992534842e-05	0.5555373162608476
288.1039	0.19345673187885795	2.575464679718302e-13	2.4739549721691776e-05	0.4952402333858514
288.2364	0.2266404281362328	1.9449605595916695e-14	6.534961750232339e-06	0.41622980089659034
288.3688	0.2702906503879022	1.320486979385227e-15	1.594523078073994e-06	0.3299187640007604
288.5012	0.32767739323152895	8.044454364770567e-17	3.5903096387245606e-07	0.24659832015447297
288.6336	0.4006732946440183	4.39742262277686e-18	7.460128995062423e-08	0.1738130830391907
288.7661	0.48610978594241155	2.1519503031480962e-19	1.4286280546809446e-08	0.11548895289450638
288.8984	0.5734189096139368	9.493336367746296e-21	2.5311344224078735e-09	0.07240939472380434
289.0309	0.6510655321089424	3.7399009585151896e-22	4.1272618313541976e-10	0.04277922338695461
289.1633	0.713307157290279	1.325204037476106e-23	6.218755026030315e-11	0.02384201738066006
289.2957	0.7609325693223326	4.2135150010159635e-25	8.646855737385261e-12	0.012530325600410936
289.4281	0.7970473268516198	1.2021135249519876e-26	1.109497464099232e-12	0.006209990906970134
289.5605	0.8247150842403451	3.0774114640390173e-28	1.313734940983642e-13	0.0029022099329864986
289.6929	0.8462873893747672	7.069110918936499e-30	1.4354977764182216e-14	0.0012790158782405921
289.8254	0.8634442957358743	1.452753932182451e-31	1.4449236089836777e-15	0.0005311713499490379
289.9578	0.8773215711327764	2.6866681926430098e-33	1.3444355374824744e-16	0.0002081521998778831
290.0902	0.8887449642906363	4.4583601969027833e-35	1.1543789968912853e-17	7.691952965537404e-05
290.2226	0.8982894867818225	6.638583416874311e-37	9.146821114671656e-19	2.6804115875153436e-05
290.355	0.906369828671814	8.869820388674941e-39	6.688139009483964e-20	8.807965511606416e-06
290.4874	0.9132905161682087	1.0633919769321136e-40	4.512879453276467e-21	2.72934839626127e-06
290.6199	0.9192833523570053	1.140004785140007e-42	2.804088058924877e-22	7.967799729519142e-07
290.7523	0.9245122961817169	1.1003427172884038e-44	1.6111664619701834e-23	2.1954372633938245e-07
290.8847	0.9291155641989645	9.529901621655673e-47	8.54284475889769e-25	5.704438533595041e-08
291.0171	0.933197492683196	7.406073303823029e-49	4.180016076761316e-26	1.3977002101048563e-08
291.1495	0.9368407592110368	5.164481667140183e-51	1.8874120618660456e-27	3.2294190882938983e-09
291.2819	0.9401116505889446	3.231503412067438e-53	7.864458708180455e-29	7.036294971232164e-10
291.4144	0.9430660058352047	1.807190542637516e-55	3.0164928733132427e-30	1.4439235448692352e-10
291.5468	0.9457433520945896	9.103839011641694e-58	1.0702980574594032e-31	2.7974548031867307e-11
291.6792	0.9481823316127916	4.1151373791549476e-60	3.504455157131957e-33	5.110827359838786e-12
291.8116	0.9504131689243991	1.6691034395161268e-62	1.0588869925015473e-34	8.804984492123515e-13
291.944	0.9524612241979512	6.074650704939062e-65	2.952514614721657e-36	1.4304583978288667e-13
292.0764	0.9543479269367567	1.983802871465922e-67	7.597099858838207e-38	2.1914477477765785e-14
292.2089	0.9560927709567838	5.787404961984518e-70	1.798775045758195e-39	3.1612002523462208e-15
292.3412	0.9577075530151625	1.5285172933656606e-72	3.9527504959611515e-41	4.3129125486302024e-16
