energy	step1_	g1_	g2_	g3_	g4_	g5_
394.3549	0.009295558301329178	3.628208010948432e-47	1.9352371717539985e-78	8.276837025090921e-54	7.1995784457111e-48	1.444383840850976e-197
394.4672	0.009386781568688739	2.7108368915264593e-45	7.076975516636084e-76	2.5420673069659212e-52	7.470122090170193e-47	1.2288203601012104e-193
394.5796	0.009479896095628007	1.860400342223673e-43	2.3546523053750507e-73	7.459176243021326e-51	7.569384223631946e-46	9.615821397375342e-190
394.6919	0.009574790484523163	1.1639476538770997e-41	7.054785178496777e-71	2.0785700108426193e-49	7.459608930591929e-45	6.811592488578617e-186
394.8042	0.009671603203801733	6.664008695081733e-40	1.9132944711494575e-68	5.517259614914014e-48	7.164633597271249e-44	4.403083014868537e-182
394.9166	0.009770481864629017	3.503696894765919e-38	4.7198678623742633e-66	1.3989652968710634e-46	6.71976770889127e-43	2.6172853277818854e-178
395.0289	0.009871311737666096	1.6797492784245465e-36	1.0487485513155686e-63	3.369122883285819e-45	6.130092999947706e-42	1.4086911253098086e-174
395.1412	0.009974243619573843	7.369490535054466e-35	2.1093756265190096e-61	7.728794075074122e-44	5.450072525596852e-41	6.918730794029345e-171
395.2536	0.0100794384839069	2.96835875406106e-33	3.858076875525274e-59	1.6934600479315452e-42	4.7314034390549796e-40	3.124041804495538e-167
395.3659	0.010186778427046682	1.090498869546054e-31	6.357654714659118e-57	3.5246904913448743e-41	3.995398270269724e-39	1.277567876084098e-163
395.4782	0.010296428266054567	3.666140614967584e-30	9.483398799491048e-55	6.987985469272985e-40	3.288157326783295e-38	4.767569969379836e-160
395.5906	0.010408564192754221	1.131295321301423e-28	1.2860264398295628e-52	1.3231068265269964e-38	2.6422123177337065e-37	1.635248226683354e-156
395.7029	0.010523065389781061	3.1847527316190637e-27	1.5716668205427667e-50	2.380000583149836e-37	2.0653568632723182e-36	5.081047694147212e-153
395.8152	0.010640112699826045	8.204469669064983e-26	1.7386496929849522e-48	4.077971548314017e-36	1.573420872205346e-35	1.4406842297292065e-149
395.9276	0.010759899735675472	1.9395694557816618e-24	1.7481025303768848e-46	6.672165437980622e-35	1.170273727963717e-34	3.753631377046626e-146
396.0399	0.010882303165083207	4.1840412778888397e-23	1.5843897193101795e-44	1.0372539112087882e-33	8.467830145624712e-34	8.861834677629249e-143
396.1523	0.011007635035332345	8.281289568989942e-22	1.3049181261299327e-42	1.5396472174664794e-32	5.98176915099311e-33	1.9221714540067743e-139
396.2646	0.011135770648248248	1.4959064131612083e-20	9.689957873884356e-41	2.1716540555480353e-31	4.1110163968425556e-32	3.778510544839746e-136
396.3769	0.011266923104238814	2.4727826486848554e-19	6.513306720016915e-39	2.917729590476493e-30	2.7535387004794305e-31	6.7778991080730975e-133
396.4893	0.011401321158585083	3.7495219876666805e-18	3.977330751490168e-37	3.7424919774519684e-29	1.8004294985248128e-30	1.1167598369026005e-129
396.6016	0.011538838706186078	5.190070467253307e-17	2.190356773631789e-35	4.562117026727033e-28	1.1453889089248757e-29	1.667979620954566e-126
396.7139	0.01167971237447689	6.574241771219757e-16	1.0918903509699128e-33	5.297328918060772e-27	7.101535174609161e-29	2.2733569932589342e-123
396.8263	0.01182419660745806	7.637013903241807e-15	4.943540948770185e-32	5.871546109142832e-26	4.297982095660637e-28	2.8453030787384776e-120
396.9386	0.011972164939663204	8.100500019436275e-14	2.0190441461844276e-30	6.185775310833143e-25	2.5310384852582706e-27	3.228954503063171e-117
397.0509	0.012123881483007403	7.862762194061711e-13	7.464393220118617e-29	6.207557922160452e-24	1.4526310103730914e-26	3.3438074705291875e-114
397.1633	0.012279630746624696	6.997469277241953e-12	2.505662349849818e-27	5.945604470476713e-23	8.137576700843882e-26	3.1790573661264565e-111
397.2756	0.012439287362158848	5.6874834107381393e-11	7.589527748298253e-26	5.413445903632762e-22	4.435948904698464e-25	2.741158796244325e-108
397.3879	0.012603147775106021	4.230331028232912e-10	2.0808844982806185e-24	4.6950104433384265e-21	2.3566787763635263e-24	2.1568302770564146e-105
397.5003	0.012771531933737874	2.8842185255717817e-09	5.178988448146216e-23	3.885898873978648e-20	1.2219898511417585e-23	1.5576478491219945e-102
397.6126	0.012944317582149216	1.796379957847688e-08	1.1633802185133901e-21	3.057774134998773e-19	6.166181903370024e-23	1.0204871685298336e-99
397.7249	0.01312183949298024	1.0238664381042728e-07	2.365589716800084e-20	2.2919454966941087e-18	3.0324069349657896e-22	6.100869887995945e-97
397.8373	0.013304459711449116	5.347922023106063e-07	4.365211803858602e-19	1.6392263076760566e-17	1.4553991399075804e-21	3.346888763680347e-94
397.9496	0.013492061871406075	2.55238393037126e-06	7.272212828735655e-18	1.1147794270495872e-16	6.798109262625371e-21	1.666026808264994e-91
398.062	0.013685200838207292	1.1161818302060646e-05	1.0992561715085657e-16	7.233310371970032e-16	3.0988298838264754e-20	7.608817402059039e-89
398.1743	0.013883766218778534	4.4607893282916835e-05	1.5003883490154505e-15	4.463117056254401e-15	1.374797202582058e-19	3.1536563070126002e-86
398.2866	0.014088174225215789	0.00016314115959184593	1.8537427670545018e-14	2.623157872455494e-14	5.944316973494911e-19	1.192772194327044e-83
398.399	0.014298876634233786	0.0005465632681773076	2.077546396632795e-13	1.4707954647964705e-13	2.508066104937048e-18	4.1379847909184786e-81
398.5113	0.014515776095453438	0.0016738174936066796	2.1030036613687953e-12	7.843133017433475e-13	1.0299998857617307e-17	1.3031323542446067e-78
398.6236	0.014739351723062321	0.004690842277667524	1.9269495398023624e-11	3.983931419793026e-12	4.1224727123034546e-17	3.74484727928436e-76
398.736	0.014970124831684188	0.012039700321663696	1.6011813902156266e-10	1.930275972241943e-11	1.6099864963110236e-16	9.86873988238655e-74
398.8483	0.015208017673180235	0.02825362876214227	1.202027374204243e-09	8.895960069018938e-11	6.120370655540134e-16	2.36136856730211e-71
398.9606	0.01545358647402711	0.06067473093194977	8.168253326833515e-09	3.9052713886637216e-10	2.2675435175553e-15	5.155986836020443e-69
399.073	0.015707438037884047	0.11930555221024916	5.0323208139038116e-08	1.6350779746675442e-09	8.19685964641673e-15	1.0321328435591686e-66
399.1853	0.01596952334489689	0.21454090535490003	2.8017325198438526e-07	6.512504106918218e-09	2.884431852986992e-14	1.8764634611117456e-64
399.2976	0.016240494217361966	0.3530487108638062	1.4119718489328754e-06	2.4708280704748924e-08	9.892259088412031e-14	3.1130820864148625e-62
399.41	0.01652106376968808	0.531833115487185	6.449619435110584e-06	8.939422697535234e-08	3.309899254583094e-13	4.733807329142079e-60
399.5223	0.016811224501738435	0.7328510697021742	2.663035571163475e-05	3.0771958397605166e-07	1.0781640640902217e-12	6.5390932441476e-58
399.6346	0.017111748209229474	0.9241259029551577	9.953157156139971e-05	1.0089874737805449e-06	3.4227670717503074e-12	8.242717749343223e-56
399.747	0.017423481887041046	1.0664974937002918	0.0003370837701528376	3.154513709160257e-06	1.0600444152160667e-11	9.521089361667606e-54
399.8593	0.01774647765285282	1.1261366318721788	0.0010322033104128187	9.384566241388134e-06	3.196328689237689e-11	9.993003330513435e-52
399.9716	0.018081659920649334	1.0881716313134118	0.0028611041571989793	2.6593834628481763e-05	9.392932880932664e-11	9.570868936954652e-50
400.084	0.018430046647916015	0.9620863324105228	0.0071842192778647255	7.184677954910368e-05	2.6926218178206225e-10	8.397766381385922e-48
400.1963	0.01879177547051567	0.7784597958759205	0.016315166537558844	0.00018472480329409762	7.515537122594636e-10	6.696927817547443e-46
400.3087	0.0191683095699752	0.5762355146247736	0.03355860173947867	0.00045275690311351015	2.0462049361576934e-09	4.891856386251328e-44
400.421	0.019559863541549947	0.39042533663038775	0.0624394831981966	0.0010561707462157144	5.424611865336139e-09	3.248194450948969e-42
400.5333	0.019967723188176013	0.2420756088587694	0.10516125453677118	0.0023468652935659095	1.4015565541902075e-08	1.9681413580195767e-40
400.6457	0.02039331375947964	0.13727859189003389	0.1603751347107348	0.004970587556132482	3.532052536659181e-08	1.0920702480329773e-38
400.758	0.020837007380969014	0.0712740905399683	0.22129775275268299	0.01002104248671634	8.667702358149052e-08	5.509616051938794e-37
400.8703	0.021300403328945148	0.03386379451925414	0.27641269750961484	0.019244341421547042	2.0730187964186695e-07	2.536518540465499e-35
400.9827	0.021785282502408066	0.014712123197330665	0.31254186174201215	0.035221051460617166	4.835564632245092e-07	1.069125125985094e-33
401.095	0.022292247037660435	0.005853223639928752	0.31983993702531344	0.06136823230331933	1.0984525984256543e-06	4.0982810158510494e-32
401.2073	0.022823321354490184	0.002131031896862479	0.2962771808882376	0.10185207594310101	2.4318560509748324e-06	1.4335765174957282e-30
401.3197	0.02338077161699917	0.0007092798672574569	0.24838040965978778	0.16108268004634557	5.250603709772415e-06	4.5899460488695193e-29
401.432	0.023965540392346364	0.0002162361468906699	0.18850651406418015	0.2425639549580219	1.1040803039001777e-05	1.3368516524520949e-27
401.5443	0.02458024202883174	6.0327318641241634e-05	0.12950197793005364	0.34792742123390763	2.2626349919911565e-05	3.553078475621117e-26
401.6567	0.02522782075581747	1.538259673792142e-05	0.08049417745900879	0.47549649228255586	4.521820314652672e-05	8.641471644367217e-25
401.769	0.02590973192148085	3.5936122313290166e-06	0.04530623956108214	0.6188150358592626	8.801607855439897e-05	1.9123429713758932e-23
401.8813	0.026629430101671445	7.682593205371683e-07	0.023083017623593348	0.7671130523263077	0.00016696796165562104	3.8618002364573114e-22
401.9937	0.027390833173285688	1.500760601062971e-07	0.010637745065978728	0.9059364411998524	0.0003088583671371269	7.1345883691683e-21
402.106	0.02819618604068083	2.6866053424024595e-08	0.004440456861359479	1.0189371368962583	0.00055650026944868	1.1996358467690592e-19
402.2184	0.02905095996779423	4.393945277227145e-09	0.0016762974531549827	1.0916898535153055	0.0009777021426122976	1.8450757983763868e-18
402.3307	0.029958165384559855	6.586624833336929e-10	0.0005732877649250563	1.1140381989561088	0.0016731984458317804	2.5831594683129487e-17
402.443	0.030923646678034607	9.035376993685506e-11	0.00017747422040720705	1.0828937964464	0.0027906845859957067	3.300153715808893e-16
402.5554	0.031954130073113124	1.1321005397091731e-11	4.9673828875188866e-05	1.0025763284240718	0.0045381554279013085	3.8556282528723635e-15
402.6677	0.03305435317725906	1.3004216080926815e-12	1.259893257433798e-05	0.8842078711285075	0.0071891499947855445	4.101423331889182e-14
402.78	0.034232695147535366	1.3669682397710224e-13	2.892550051456521e-06	0.7428075024772256	0.011099365150968113	3.9812549296214547e-13
402.8924	0.03549890883939981	1.312154860784519e-14	6.002638260830405e-07	0.5942751358471955	0.01670683471428919	3.5332728766120046e-12
403.0047	0.03686063301355256	1.154981877212861e-15	1.1291010567024716e-07	0.4529607924947018	0.024499072793922116	2.855742609569144e-11
403.117	0.03833039232861961	9.30337042432454e-17	1.9224916913203613e-08	0.3288657443232887	0.03501285584723973	2.1062353119712864e-10
403.2294	0.03992296872076428	6.841556727481928e-18	2.95797630629053e-09	0.2273576725180151	0.048781033466905634	1.4199082708885285e-09
403.3417	0.041651111272746864	4.614619584705857e-19	4.1263860782132744e-10	0.14976791651469343	0.06621612504240716	8.719761557563781e-09
403.454	0.043534516018008854	2.848340760485448e-20	5.210579711289311e-11	0.09397513024823123	0.08759895859936936	4.886465937001994e-08
403.5664	0.04559683809345965	1.6047024423231543e-21	5.944087493217701e-12	0.05614144809350786	0.11296654043761944	2.5023294213694026e-07
403.6787	0.04786038065491134	8.294044909923753e-23	6.14957197430736e-13	0.03196162896593903	0.14194493080533727	1.1675923500779552e-06
403.791	0.05035813392976798	3.92295493227927e-24	5.758980397355302e-14	0.01733241884290096	0.1738250494349489	4.971459956082848e-06
403.9034	0.053130618358407114	1.6931827585613296e-25	4.870950086846845e-15	0.008947661530586877	0.20748689501365486	1.9338810568331463e-05
404.0157	0.056219404365248964	6.706047154294967e-27	3.7372994908159248e-16	0.004402414843387981	0.2413337289950495	6.856128620694421e-05
404.1281	0.05968763874171843	2.423283969206598e-28	2.5893598854046932e-17	0.002061839529648676	0.27359697779716974	0.00022202937225211574
404.2404	0.06360124716558113	8.036795245660934e-30	1.6277216834248982e-18	0.0009204229212715833	0.3022550219461374	0.0006554146133229941
404.3527	0.06805447627615013	2.439139086709278e-31	9.262087897517305e-20	0.00039138570885925396	0.3254304378213587	0.0017655001372324963
404.4651	0.07316959675459361	6.752463136185158e-33	4.7578674835324314e-21	0.00015839758619466977	0.34149068928765036	0.004343056083038815
404.5774	0.07909079997415501	1.7160570148799093e-34	2.218117774870283e-22	6.111069803054605e-05	0.3492194226673166	0.009741000489369659
404.6897	0.08602558169633974	3.990949855975441e-36	9.360474794715124e-24	2.245799104788814e-05	0.3480489503876443	0.01993690038141717
404.8021	0.09425663162452767	8.464277185829085e-38	3.565087978333172e-25	7.854059692636206e-06	0.33805584515906584	0.03725473923858064
404.9144	0.10414843080816648	1.648353157985456e-39	1.2326138372571742e-26	2.618779934306738e-06	0.320011264291431	0.06348806545280794
405.0267	0.11624162287731057	2.9375530551358576e-41	3.8576679401968737e-28	8.317422945664966e-07	0.2952327264642603	0.09872987925421783
405.1391	0.13132075947071237	4.772954285769353e-43	1.0893467578169723e-29	2.5135745896507433e-07	0.26542391014077843	0.14014212618851865
405.2514	0.15049288607199718	7.12260005343716e-45	2.7932348962575767e-31	7.243237170671317e-08	0.23258095643933566	0.18146033422074567
405.3637	0.17546371203954597	9.726686305320654e-47	6.483205517712925e-33	1.9881933142108862e-08	0.19862352129767902	0.21440783759518436
405.4761	0.20879186716648268	1.2107498254907144e-48	1.3573755502539149e-34	5.192079074367335e-09	0.1652850779597482	0.23118356698288134
405.5884	0.2539924830316812	1.3845115890119533e-50	2.5812250015307582e-36	1.293059020213498e-09	0.13406797495432446	0.2274429097955463
405.7007	0.31524042176619455	1.4488180328603189e-52	4.4431678478709434e-38	3.0674703461781906e-10	0.10598364890054393	0.20418968141784627
405.8131	0.3944964601546734	1.3816285470619445e-54	6.897185123335615e-40	6.922177954547598e-11	0.0816336588336679	0.16724236572725998
405.9254	0.48540600913512844	1.210666079874414e-56	9.727074685993227e-42	1.489895922728067e-11	0.061293999145808756	0.12501559239686444
406.0378	0.5731451289975871	9.666049562842215e-59	1.2368808008406527e-43	3.0502247738782016e-12	0.044839763626097345	0.08524371234100668
406.1501	0.6452873171047594	7.092476793216629e-61	1.429162877807486e-45	5.956568806143592e-13	0.03197767528078758	0.05305627163946286
406.2624	0.6996403196379987	4.762356432393923e-63	1.4947777391196684e-47	1.1080145315992937e-13	0.022225568439070365	0.030134018275123815
406.3748	0.7396073342824167	2.912959786824003e-65	1.4092600779339292e-49	1.960203076546569e-14	0.015049624298415899	0.015608149859117591
406.4871	0.7691957340883039	1.6378506276143577e-67	1.2076179360827514e-51	3.3082742669582747e-15	0.00993496920109038	0.007381221494123648
406.5994	0.7915916040705127	8.427313708481467e-70	9.367182381896854e-54	5.318472546961283e-16	0.006391897580181024	0.0031853047947169254
406.7118	0.8089649070276055	3.949023366209363e-72	6.547755193569478e-56	8.130593153854186e-17	0.004006175889630977	0.0012532611624027988
406.8241	0.8227257014859564	1.701454744057658e-74	4.1611691118156506e-58	1.1859292806363443e-17	0.002448094470842468	0.000450319580709128
406.9364	0.8338592874988106	6.708511489616253e-77	2.3937528830162772e-60	1.6477082968713662e-18	0.0014579705400589737	0.00014765427557612203
407.0488	0.8430359439759593	2.4083225946255485e-79	1.2405997855582557e-62	2.1766837475367066e-19	0.00084581693913431	4.4129887519766925e-05
407.1611	0.8507037079186188	7.951265500503448e-82	5.847081684101804e-65	2.7438983475440674e-20	0.0004784447923615063	1.204798751159201e-05
407.2734	0.8572036933426884	2.4023313981517173e-84	2.494523709905957e-67	3.2947743504176805e-21	0.0002637604655914332	3.001526229870673e-06
