energy	step1_	g1_	g2_	g3_
279.61	0.020575735444155367	4.743449832868995e-41	3.7148790374907023e-19	3.0677295866589894e-28
279.9	0.02127786765756822	9.965473956382493e-37	1.7630808696844212e-17	2.8836438091025793e-26
280.2	0.02205639949990649	1.638988401939302e-32	7.860529518016474e-16	2.646464243898412e-24
280.5	0.02289396413082573	1.482351853482572e-28	2.872361631516223e-14	2.0212594913886313e-22
280.8	0.02379752741091597	7.372660226282519e-25	8.602688053609975e-13	1.2847237112126524e-20
281.08	0.024707528626911383	1.212112442258647e-21	1.716555631444664e-11	5.245852751821601e-19
281.28	0.025401242575936702	1.746303348584711e-19	1.3096956226009687e-10	6.729639328698199e-18
281.48	0.026134946616266835	1.9287375259945898e-17	9.147160740186975e-10	7.956368171187071e-17
281.68	0.026912192781852973	1.6330641305175316e-15	5.847977427602253e-09	8.669326169287186e-16
281.88	0.02773696550191016	1.0600101294098456e-13	3.422382182801013e-08	8.705690105913856e-15
282.08	0.028613749274891683	5.274647688377197e-12	1.8333896138777027e-07	8.056908910067323e-14
282.28	0.029547609424155855	2.012118548133318e-10	8.990512912106523e-07	6.871967435777229e-13
282.48	0.030544288973909414	5.884239459638335e-09	4.035688277512725e-06	5.401832597335258e-12
282.68	0.03161032551537514	1.3191791472713703e-07	1.6582660116704454e-05	3.9133486226235714e-11
282.88	0.03275319302842619	2.2672211445183144e-06	6.237265448234213e-05	2.612783025284697e-10
283.08	0.03398147507922086	2.9871749234170235e-05	0.00021475223735507314	1.6077019629623422e-09
283.28	0.03530507776550943	0.0003017199954058954	0.0006768378056818858	9.117066601686497e-09
283.48	0.03673549342232749	0.0023362762606038354	0.0019526974644604143	4.7648814733795884e-08
283.68	0.03828612971229854	0.013868227764411696	0.00515690056834167	2.2950727994265627e-07
283.78	0.03911134397203204	0.030583388404094178	0.008107126435035613	4.885105178872106e-07
283.88	0.03997272371727057	0.06310945087009291	0.012466541726589682	1.018798317173662e-06
283.93	0.040417722756603	0.08842556923948124	0.015331542177280928	1.4600633069001185e-06
284.03	0.041337950544685136	0.1651592549591033	0.022806895972805247	2.95318910762089e-06
284.08	0.041813867630009015	0.22016308543235735	0.027587139698531757	4.167996650125186e-06
284.18	0.04279914857066322	0.37220808584391474	0.03969979867380109	8.176213123082214e-06
284.28	0.043831682530835296	0.588804703496773	0.05588185255414201	1.5714982176314995e-05
284.33	0.044366737523163835	0.7223423314104276	0.065752514108039	2.162076494310168e-05
284.43	0.04547674323012134	1.0342958529888209	0.08953568169879798	4.030305949216539e-05
284.48	0.04605269091942053	1.2071874288693414	0.10361875215865554	5.46069365833739e-05
284.58	0.047249158595562876	1.564561614166769	0.1364971017446549	9.872338658956061e-05
284.68	0.0485089593178214	1.8973821209335344	0.17587712698349112	0.000174875562145842
284.73	0.04916418925277523	2.038050461866742	0.1979942835657127	0.000230972343396811
284.83	0.05052876723600471	2.237140786395372	0.24679699924985737	0.00039680243654219256
284.88	0.05123961277233925	2.2861860455527885	0.2732648733708924	0.0005161284784240747
284.97	0.05257037475938095	2.279739643270722	0.3237243988654786	0.0008179077497584733
285.07	0.054131672974269386	2.1335834496869848	0.38267026884282057	0.0013379722507482314
285.12	0.05494727209533414	2.0132647403348507	0.4126194429050559	0.0016982233800445928
285.22	0.056653688773777834	1.705459928609472	0.4718459888444496	0.002694280884030524
285.27	0.057546828675995185	1.5310553741358963	0.5004098845624513	0.0033677761312086657
285.37	0.0594193255856091	1.1739450804084874	0.5535766325506349	0.005181989631421736
285.47	0.06141621253297661	0.8422651445088197	0.5990050444498569	0.007812440307776577
285.52	0.06246518937568722	0.6958704830769797	0.6179554510853772	0.009519367997584032
285.62	0.06467290856921977	0.451903508888789	0.6468613287617295	0.013918856562970058
285.67	0.06583549054896633	0.3552085616015949	0.6563545824591827	0.016702350716456427
285.77	0.06828872510215778	0.2087934993196209	0.6646512614795573	0.02368526854166552
285.87	0.07092871716588509	0.11484039760517153	0.658339639752276	0.032909090101009925
285.92	0.07232542053159305	0.08307351890967513	0.6497980657221155	0.03849558938507662
286.02	0.0752874021570056	0.041357718353587015	0.6226383650585339	0.05187448591966671
286.07	0.07685946260152102	0.028463127347242278	0.6044563316415809	0.059758754858268925
286.17	0.08020476120663345	0.012826047083493115	0.5603039506869985	0.07809974995340864
286.27	0.08384745977901002	0.005408131092545808	0.5080229109711089	0.10000796594558677
286.32	0.08579268959971316	0.0034253382400118897	0.4797482821752579	0.11230611072687187
286.42	0.08995951298797651	0.0013072964842093927	0.4207986453320245	0.1394741133595462
286.47	0.09219411902689437	0.0007877501068537429	0.3908454927839555	0.1542464004321529
286.57	0.09700290398377773	0.00027212932895100383	0.33164030313931686	0.1857849503366924
286.67	0.10232265505894361	8.796428909840674e-05	0.27525192143031674	0.2192516502073638
286.72	0.10519927848048821	4.8781031884811834e-05	0.24869222614866124	0.23636619203208772
286.82	0.11144556902321139	1.4272441747049464e-05	0.19967631648515863	0.270534695040643
286.87	0.1148428832762326	7.530104264927229e-06	0.1774430739517531	0.28722225852833166
286.97	0.12226655127099226	1.99418082340881e-06	0.13782394909137893	0.31883131831080264
287.07	0.13065846789892557	4.941653021601486e-07	0.10471073001476915	0.3467693498624131
287.12	0.13527467224680462	2.399413880010027e-07	0.09051587602220909	0.35888630543443356
287.22	0.14548633118143847	5.381819513747576e-08	0.06652617399535588	0.3785662446319032
287.27	0.15114750550722691	2.4861090391675707e-08	0.056562261358208646	0.38584307030951276
287.37	0.16377593718771907	5.047314708856717e-09	0.040215719524249335	0.3947307647728326
287.47	0.17846486574210535	9.588369529004315e-10	0.02796828155040773	0.3956654188377149
287.52	0.18672408096900855	4.076298834805279e-10	0.023131355082759524	0.3931135120542894
287.62	0.20541691949937277	7.009170799763332e-11	0.015562247058193082	0.3821645166980382
287.67	0.21601168427197076	2.83495402063626e-11	0.012659257780192399	0.3739322076957991
287.77	0.24015968083920333	4.412278302651474e-12	0.008239118789786809	0.3525579677362977
287.87	0.2689429679868289	6.425751733802345e-13	0.005245104508427214	0.3256904632318895
287.92	0.28534060777058606	2.3918477226344276e-13	0.004150411514858254	0.310648036911701
288.02	0.3226249301237181	3.152904533782939e-14	0.0025560293210680277	0.2783225483825704
288.12	0.3662421952311602	3.888949304187205e-15	0.0015397186280919311	0.24432337463935275
288.17	0.39037682834352494	1.33220811442045e-15	0.0011851667343057125	0.2271693048544255
288.27	0.44257119156427277	1.4873383809538518e-16	0.0006906472332413817	0.1934067139150102
288.32	0.47008473176622045	4.8473871004559785e-17	0.0005228715483567253	0.17709602458387158
288.42	0.5260509996260997	4.898483652825009e-18	0.00029476310636161035	0.14622983175731405
288.52	0.580463468916927	4.631906561020968e-19	0.00016253694745083246	0.11830415437696365
288.57	0.606159418446598	1.3892740243108514e-19	0.00011969938224655484	0.1055986390323181
288.67	0.6533202744872302	1.1890559547026336e-20	6.38516573265261e-05	0.0828566952174005
288.72	0.674554478094821	3.393036588662454e-21	4.625009503911275e-05	0.07283473896993156
288.82	0.7122691785285424	2.628567713198047e-22	2.3866799536673544e-05	0.05542594740556937
288.92	0.7440745270473152	1.9054342261233073e-23	1.2046935960557558e-05	0.041326110237494294
288.97	0.7580022626108415	5.003920725055939e-24	8.48824942196825e-06	0.035412496927140324
289.07	0.7824446044480564	3.283231178234186e-25	4.1447833968799105e-06	0.02560785637381367
289.12	0.7931659328376419	8.203062999915958e-26	2.8723940324310425e-06	0.021610154945874222
289.22	0.812075898521251	4.871731439576752e-27	1.3568411725289654e-06	0.015155833560184778
289.32	0.8281403658018378	2.70729011799718e-28	6.269239651129962e-07	0.010414504716724083
289.37	0.8352759781462044	6.225003355361831e-29	4.226278607372599e-07	0.00856730711791178
289.47	0.8480343873598156	3.1311746940896243e-30	1.8890579132743924e-07	0.005709635714638908
289.52	0.8537515355785319	6.84967893210321e-31	1.2525329787614156e-07	0.004625585899448677
289.62	0.8640602668790216	3.118560497254565e-32	5.415986948494436e-08	0.0029897583405173434
289.72	0.8730849016380764	1.3285634431166766e-33	2.290693108030113e-08	0.0018933995479560504
289.77	0.8771842453198866	2.6747021266806983e-34	1.4774469025637956e-08	0.0014952770866960559
289.87	0.8846698427139739	1.0313825933886856e-35	6.045085846047003e-09	0.0009184026586414135
289.92	0.888094433608354	1.9754727679228523e-36	3.834847434776219e-09	0.0007142745512216443
290.02	0.8943890768102287	6.894958738425513e-38	1.5178888548473175e-09	0.000425482695496076
290.12	0.9000355883687486	2.2518344676512518e-39	5.876689081716188e-10	0.00024833359412766866
290.17	0.9026452601681464	3.96933652263142e-40	3.6264309094197427e-10	0.00018827323198295762
290.27	0.9074871546075348	1.1733807545236617e-41	1.3582303802910284e-10	0.00010657305642245597
290.32	0.9097366371338244	1.9677890677373706e-42	8.243673435597019e-11	7.957069666856456e-05
290.42	0.9139303244445787	5.265211652619397e-44	2.986868499291023e-11	4.36834846180937e-05
290.52	0.9177599764144455	1.3182485144316755e-45	1.0585522179251954e-11	2.349731484217105e-05
290.57	0.9195524616755579	2.0345439760231115e-46	6.249722021829036e-12	1.7101926457560382e-05
290.67	0.9229172281991026	4.6106779460573335e-48	2.1426842411145304e-12	8.9217750093762e-06
290.72	0.92449817243707	6.7700629002526586e-49	1.2442488139018952e-12	6.394854990618894e-06
290.82	0.9274764285114341	1.3886943227396376e-50	4.1267294814615863e-13	3.2355059607934147e-06
290.92	0.9302322771779912	2.6654146648713366e-52	1.338768934662375e-13	1.6039489993753635e-06
291.13	0.9353969239593143	5.326857790593488e-56	1.171573772989783e-14	3.4384485424678624e-07
291.33	0.939659556578787	1.2162569842135406e-59	1.051610920966894e-15	7.295323106313442e-08
291.53	0.9434000784409762	2.128904880687976e-63	8.640601499162222e-17	1.4265070507171907e-08
291.73	0.9467080124605544	2.8566947331925503e-67	6.498846908056283e-18	2.5706958888322058e-09
291.93	0.9496536933260598	2.938651440515468e-71	4.474371898815383e-19	4.2694789107884366e-10
292.06	0.9514011301384727	6.519842000481813e-74	7.495043821812151e-20	1.2722548655858964e-10
292.21	0.9532735212221471	4.913996184413176e-77	9.104999834334825e-21	3.014868152568651e-11
292.51	0.9566189320401882	1.7825980455382857e-83	1.1574367883514016e-22	1.4751305279641372e-12
