energy	step1_	g1_	g2_	g3_	g4_	g5_
279.8564	0.006921884773900781	4.479348486415015e-38	2.9710549624932425e-46	1.1312256952241677e-62	1.7559909292554053e-56	7.074967100535188e-75
280.0114	0.007042578983614158	6.19367152157033e-36	2.5174155263112117e-44	1.6094713967072577e-60	5.852560016788385e-55	4.092836935706317e-73
280.1664	0.007167555196330869	7.41485506665873e-34	1.937587725670282e-42	2.0965076645385962e-58	1.857273041408684e-53	2.254398751094121e-71
280.3214	0.007297045308754431	7.685610018927744e-32	1.3546593243302518e-40	2.5002810891682557e-56	5.611925603315849e-52	1.1823425083513621e-69
280.4764	0.007431298263033222	6.897237818305831e-30	8.60322051096402e-39	2.7299859242734094e-54	1.614560510705209e-50	5.904214789367234e-68
280.6314	0.007570581641521542	5.359116986049394e-28	4.963114176328919e-37	2.729047970297785e-52	4.422858227853135e-49	2.8072899334160245e-66
280.7864	0.007715183443917101	3.605225663771464e-26	2.6008165841978203e-35	2.4977048748537937e-50	1.1536072639071015e-47	1.2709213167847167e-64
280.9414	0.0078654140715678	2.0998721325427604e-24	1.238019351404348e-33	2.092908603986087e-48	2.8649643129068887e-46	5.478432756816699e-63
281.0964	0.008021608547669031	1.0589474914893936e-22	5.353125046007203e-32	1.6056045691024738e-46	6.774647804229963e-45	2.2485382638008296e-61
281.2514	0.008184129006709286	4.623567277921043e-21	2.1025657779774447e-30	1.127732554285091e-44	1.525318364801366e-43	8.787199876513092e-60
281.4064	0.008353367492026312	1.7478377568117713e-19	7.501602406122002e-29	7.251917077967156e-43	3.2699457471331245e-42	3.269693195157902e-58
281.5614	0.008529749106871199	5.720661250575702e-18	2.4312003019433398e-27	4.2695168481246905e-41	6.674624931156578e-41	1.1584299505867722e-56
281.7164	0.008713735572189081	1.621110155541551e-16	7.157307686366451e-26	2.3013560976668502e-39	1.2972373864217884e-39	3.9078584746185706e-55
281.8714	0.008905829253667511	3.9774066991813705e-15	1.913995365843216e-24	1.1357117166117385e-37	2.4005917981090006e-38	1.2552035313553555e-53
282.0264	0.009106577731841582	8.449065074206882e-14	4.6493723031440513e-23	5.131349296873433e-36	4.229835233647057e-37	3.83880236226238e-52
282.1814	0.009316579002598151	1.5539551814506442e-12	1.0259117742538287e-21	2.122629721507995e-34	7.09634717112926e-36	1.11785025444976e-50
282.3364	0.009536487411844173	2.474511648118235e-11	2.0563069911645543e-20	8.038890138307196e-33	1.1335809238663235e-34	3.099401096103018e-49
282.4914	0.009767020448076934	3.411628201667349e-10	3.743933600056502e-19	2.7873861390322407e-31	1.7241556704849468e-33	8.182352971652145e-48
282.6464	0.010008966541000175	4.072443509900533e-09	6.191994634047458e-18	8.848657158990233e-30	2.4969318659085985e-32	2.056766139112535e-46
282.8014	0.010263194044277441	4.208909828315719e-08	9.302405196484785e-17	2.5717976277555424e-28	3.443048814499854e-31	4.922637922960378e-45
282.9564	0.010530661617450664	3.766217126676225e-07	1.2694692393678172e-15	6.843454815608745e-27	4.520494439333579e-30	1.1218044230183992e-43
283.1114	0.010812430267819993	2.9178453244687844e-06	1.5736616417423272e-14	1.6672211344206488e-25	5.651125728933855e-29	2.434123888651342e-42
283.2664	0.01110967737010273	1.9572232134128748e-05	1.7719961902435227e-13	3.718691917433532e-24	6.726517421904107e-28	5.028917196344522e-41
283.4214	0.01142371305311548	0.00011366836930416532	1.812493494860199e-12	7.593926384783697e-23	7.623455052693528e-27	9.892648236784236e-40
283.5764	0.011755999432703838	0.0005715577013255697	1.684039900183817e-11	1.419782293952787e-21	8.226586867000196e-26	1.8529210888862402e-38
283.7314	0.012108173284207513	0.0024882941123587307	1.4213156742638784e-10	2.4302800335886876e-20	8.452667836296663e-25	3.3045137054030067e-37
283.8864	0.012482072893231968	0.00937917248517158	1.0896598817428977e-09	3.808641295928058e-19	8.269403603332111e-24	5.611312636909632e-36
284.0414	0.012879770010354133	0.030608955724828184	7.588459589087108e-09	5.464658351884523e-18	7.703016820779615e-23	9.072514078829826e-35
284.1964	0.013303608077046926	0.08648756765861401	4.8004122749614745e-08	7.178523864437723e-17	6.8320930808940365e-22	1.3966806327610717e-33
284.3514	0.013756248205052989	0.211582640761726	2.7584536903619875e-07	8.633491620662922e-16	5.769696569865244e-21	2.0472592725829e-32
284.5064	0.014240724805129806	0.44815429491916764	1.4398428856177085e-06	9.506419724872633e-15	4.6393639628547944e-20	2.8572935335132603e-31
284.6614	0.0147605133091609	0.8218570258935044	6.826950598942406e-06	9.583556083256388e-14	3.551977339573087e-19	3.7970222798628366e-30
284.8164	0.015319613162251056	1.3049268321149992	2.940361065447503e-05	8.845361408187546e-13	2.589334747395946e-18	4.8043839590553705e-29
284.9714	0.015922650250231696	1.7938958700206353	0.00011503680586152129	7.474526153319193e-12	1.7972665164989935e-17	5.788133598881853e-28
285.1264	0.016575004276265744	2.1351553476334475	0.0004088228988500147	5.782703692359833e-11	1.1877992276058839e-16	6.639657248551713e-27
285.2814	0.017282968458954672	2.200305106620054	0.0013197627309710729	4.095975999424043e-10	7.474460735520432e-16	7.252020960040633e-26
285.4364	0.018053951516993513	1.9631682181390961	0.0038700694137944387	2.6562139731249717e-09	4.47840083643784e-15	7.541864337371724e-25
285.5914	0.018896735567838982	1.5165380185771837	0.01030869990194262	1.5770588534549113e-08	2.5548907314018863e-14	7.468005982277326e-24
285.7464	0.019821808812302014	1.0143089780166439	0.024943149355619885	8.57258766047048e-08	1.387803474545217e-13	7.041041011343245e-23
285.9014	0.020841799498193002	0.587365476766671	0.05482276370585446	4.266337011272053e-07	7.177775674263396e-13	6.320848284337469e-22
286.0564	0.02197204890913904	0.29448809554035804	0.109454295788113	1.943916350997714e-06	3.534744791619435e-12	5.402815466057816e-21
286.2114	0.023231378030600085	0.12783455087219886	0.1985029406504637	8.10922175673084e-06	1.6574197754317694e-11	4.3971489588207603e-20
286.3664	0.024643128427902953	0.04804519232087825	0.3270117263784196	3.097133823238322e-05	7.399685136908251e-11	3.4074421986108904e-19
286.5214	0.026236598325055815	0.01563409699784574	0.48935266269485217	0.00010829788005013583	3.1455763857108786e-10	2.5141552530831577e-18
286.6764	0.028049059552103895	0.004404705206879338	0.6651855907804479	0.00034670422144276824	1.2731908309335213e-09	1.7662898092717783e-17
286.8314	0.03012864705731997	0.001074439764822742	0.8213456436630064	0.001016196030199142	4.906739930885689e-09	1.1815119257701254e-16
286.9864	0.03253859136385686	0.00022691775497942274	0.9212369120242039	0.002726936647166565	1.8005237264255024e-08	7.525243055268559e-16
287.1414	0.03536357484748925	4.149311722547571e-05	0.9385965458419363	0.006699645030243911	6.290873156260339e-08	4.56361742069161e-15
287.2964	0.03871955096489764	6.569084184839078e-06	0.868657992949341	0.015069808290033303	2.0928074831545722e-07	2.6351430897553655e-14
287.4514	0.04276940805587626	9.004399843535867e-07	0.7302657569859666	0.03103436417728839	6.629089792373583e-07	1.4487900398008023e-13
287.6064	0.04774888980659525	1.0686263917586582e-07	0.557667455748188	0.05851364692407513	1.999331437667662e-06	7.584255868057854e-13
287.7614	0.05401132638203178	1.0980400967240695e-08	0.3868404793781392	0.10100681375491308	5.741454921117163e-06	3.780304441660955e-12
287.9164	0.06210860726734521	9.7685855162134e-10	0.2437534507949941	0.15963325396316969	1.5698761617971263e-05	1.7941008523278606e-11
288.0714	0.07294580273999988	7.524304209377619e-11	0.13951852634074074	0.23098046498015545	4.087098472465484e-05	8.107243256326633e-11
288.2264	0.08809341399056099	5.0179021550666815e-12	0.07253961327670864	0.3059893606819622	0.00010131437725126336	3.4882357714407696e-10
288.3814	0.11044723123843368	2.897338325414166e-13	0.03425948571781284	0.37112190710037446	0.0002391295949496094	1.42904114880165e-09
288.5364	0.1455967492093884	1.4484296734392743e-14	0.014697676714096225	0.41210325643232915	0.0005374051800373926	5.574294543603565e-09
288.6914	0.20374340685385467	6.269267420928506e-16	0.005727680569963418	0.4189620553535782	0.001149943861974415	2.0703385421884225e-08
288.8464	0.2948143775772726	2.3494021244026475e-17	0.0020275479626553	0.3899622133353041	0.002342921306047563	7.321483653837297e-08
289.0014	0.399355632508509	7.622880270252889e-19	0.0006519671758762351	0.3323146993552499	0.004545116664601282	2.465262120298593e-07
289.1564	0.47756190037635643	2.1414208143045097e-20	0.00019043315985611147	0.2592720892457892	0.008395346778044837	7.903753440707635e-07
289.3114	0.525331898950922	5.208421470076316e-22	5.052678488013238e-05	0.1852000811734545	0.01476517217254117	2.4127367581699736e-06
289.4664	0.5546322511232453	1.0968099990255157e-23	1.2177636387814918e-05	0.12111718492893064	0.024725476070325873	7.012821314632911e-06
289.6214	0.57373711175797	1.9997599267805892e-25	2.6660395535841535e-06	0.07251862378135901	0.03942367267622	1.9408049066802936e-05
289.7764	0.586974596817865	3.156788612537124e-27	5.301910865917745e-07	0.03975323987640305	0.059851600640257276	5.11419478865655e-05
289.9314	0.5966164540549949	4.3145382247724005e-29	9.577683996466204e-08	0.01995146060388065	0.08651685615511796	0.00012831544217123042
290.0864	0.603923769893205	5.105571004374165e-31	1.5716318935844483e-08	0.009167608332898652	0.11907811771006813	0.0003065397931616056
290.2414	0.6096399119370269	5.230888942069338e-33	2.342628437119224e-09	0.0038567065593786	0.15605204473523288	0.0006972701456818792
290.3964	0.6142271869540659	4.640105535991246e-35	3.171890864418779e-10	0.0014854441656332392	0.1947211999510254	0.0015101551127744066
290.5514	0.617986565095297	3.5637021327783157e-37	3.9011738922564235e-11	0.0005238117766349987	0.23134668561110575	0.0031142130443309237
290.7064	0.6211217179275462	2.369714987276262e-39	4.358475710301239e-12	0.00016911159054982717	0.26170956636706894	0.0061147873333531316
290.8614	0.6237750774474898	1.364306704186905e-41	4.4231961480760193e-13	4.998626419867728e-05	0.28189163260278216	0.011431959329444994
291.0164	0.6260490859626647	6.800629123513112e-44	4.077556760909198e-14	1.3527177115209393e-05	0.2891019646726633	0.02035008651265728
291.1714	0.628019227769176	2.934994882973345e-46	3.4144918437844703e-15	3.3515280815779947e-06	0.2823099417048437	0.03449197992158652
291.3264	0.629742304182754	1.0966973285374078e-48	2.597253809071854e-16	7.60252293233967e-07	0.2624868630892392	0.055664237584109315
291.4814	0.6312618510925946	3.548030973242165e-51	1.7945887955206736e-17	1.5788897492347074e-07	0.23237812561698062	0.08553437397547296
291.6364	0.6326117825131319	9.938233561629818e-54	1.126361402224328e-18	3.002099357175209e-08	0.19587959031503538	0.12514438629646907
291.7914	0.6338189001668522	2.410194967613925e-56	6.421741440311105e-20	5.226097501494989e-09	0.1572133423323313	0.17433650702211517
291.9464	0.6349046591240496	5.060766868253596e-59	3.325753976724246e-21	8.32931227285078e-10	0.12014228450206789	0.23124459116870885
292.1013	0.635885830806475	9.238252968543882e-62	1.5676877958054661e-22	1.216946841720876e-10	0.0874388817730527	0.29201324739385476
292.2563	0.6367778927514298	1.4542421867376347e-64	6.699591212216807e-24	1.6258719841231662e-11	0.06058112863418546	0.3511656971828574
292.4113	0.6375919257362913	1.9820052828868802e-67	2.6007540224952335e-25	1.9887503883817513e-12	0.039964685188007124	0.4020942791499197
292.5663	0.6383377167494023	2.3388052284983457e-70	9.17091147550329e-27	2.2271701503222006e-13	0.025102773276605282	0.4383792383243957
292.7213	0.6390234849667142	2.389485965640774e-73	2.9375682909091497e-28	2.2835246668628293e-14	0.01501320041487775	0.4550701371872156
