energy	step1_	g1_	g2_	g3_	g4_
393.8374	0.006134453609119825	8.027808525866345e-64	3.021736814266623e-17	5.1447450895945845e-76	3.0216564970122346e-84
393.9659	0.006218449620060261	8.374283301260574e-61	1.5896550980630355e-16	6.377181552579552e-73	1.1421192868689205e-81
394.0945	0.006304844557434015	7.411504730877098e-58	8.067124938420579e-16	6.851016294245517e-70	3.9512221602381643e-79
394.2231	0.006393672493019847	5.534719762571669e-55	3.943999399070835e-15	6.343226275192565e-67	1.2453272684720277e-76
394.3517	0.006485037605453554	3.4875094040651895e-52	1.857620855606503e-14	5.0616765698829025e-64	3.575753827764851e-74
394.4802	0.006578975940580715	1.845333320021278e-49	8.419281724632592e-14	3.4635882845297434e-61	9.31364249715445e-72
394.6088	0.006675750308884273	8.279668482894012e-47	3.6805458985852493e-13	2.053140303248997e-58	2.219725530195465e-69
394.7374	0.006775412280569842	3.134596016707678e-44	1.5500710853199236e-12	1.048914233420538e-55	4.8196006708631215e-67
394.8659	0.00687801191192364	9.969237395295495e-42	6.282413165237904e-12	4.596842305696012e-53	9.494783182460526e-65
394.9945	0.006983847960654258	2.6875028941090453e-39	2.4557425173431153e-11	1.7445729519038057e-50	1.7111671331438575e-62
395.1231	0.0070929896108785535	6.1131696492158246e-37	9.24786210702359e-11	5.70620865504576e-48	2.8095183546562475e-60
395.2516	0.007205505117472971	1.1686049808103124e-34	3.351761750001752e-10	1.60160358103666e-45	4.186276538942664e-58
395.3802	0.007321736814753519	1.892795148110627e-32	1.171517051975059e-09	3.89154201250657e-43	5.705095997699324e-56
395.5088	0.0074417767739533595	2.5868425744014014e-30	3.9448116244328865e-09	8.149245468704193e-41	7.083209136567281e-54
395.6374	0.007565815116475559	2.9830936719938843e-28	1.2796939165231806e-08	1.470760846927884e-38	8.011784120967376e-52
395.7659	0.007693953414806966	2.892523981582206e-26	3.9958538261265134e-08	2.2788534331542194e-36	8.22641958313982e-50
395.8945	0.00782660790256481	2.3751565099407198e-24	1.2031129089311007e-07	3.0552674497976828e-34	7.723348457984905e-48
396.0231	0.007963912636093083	1.6456519991990984e-22	3.4898387584463666e-07	3.5302954787086803e-32	6.605907193324075e-46
396.1516	0.008106003713603909	9.591112904974501e-21	9.744639219663992e-07	3.503266261426408e-30	5.130221664567597e-44
396.2802	0.008253368786307518	4.731873719343421e-19	2.6235037992921902e-06	3.0070673053758493e-28	3.6421562046901017e-42
396.4088	0.00840618557079782	1.9698256733128707e-17	6.804556295191571e-06	2.2245498125660258e-26	2.3556625135171927e-40
396.5374	0.008564761964220692	6.919153187133725e-16	1.7002786695087113e-05	1.4183065394185926e-24	1.3880325143104493e-38
396.6659	0.008729298964326842	2.0454682385026555e-14	4.090272118545772e-05	7.76960868797838e-23	7.428290505402624e-37
396.7945	0.00890040982615363	5.116067502460891e-13	9.486138358297475e-05	3.679893886595041e-21	3.633047260699781e-35
396.9231	0.009078354789154643	1.0797178884077086e-11	0.00021194778814523845	1.5021054740374852e-19	1.618770497355304e-33
397.0516	0.009263404158283734	1.9185406939989225e-10	0.00045595071349384294	5.270080219659145e-18	6.552342119221553e-32
397.1802	0.009456297513224247	2.8831246514468647e-09	0.000945527776362268	1.5980506426575053e-16	2.4232956212551602e-30
397.3088	0.009657383852092917	3.655832828664707e-08	0.001889003942769118	4.176311021432875e-15	8.164851594952409e-29
397.4373	0.009867029040184558	3.90452287392834e-07	0.0036339486904312496	9.38420286400485e-14	2.4996639355648157e-27
397.5659	0.010086138638140733	3.525406928803938e-06	0.006738361738829634	1.8218300561796213e-12	6.990675148945044e-26
397.6945	0.010315185004347895	2.6858455877904534e-05	0.012037381743135107	3.0482271142525585e-11	1.781101558681626e-24
397.8231	0.010554858654896086	0.00017265665913264105	0.020716287360783767	4.3955757127151765e-10	4.134188852909526e-23
397.9516	0.010805715635306879	0.0009353491779107318	0.03433440656698518	5.452394478442519e-09	8.72186215546723e-22
398.0802	0.01106897501361961	0.004281485074806855	0.05484365576796157	5.8406864381071485e-08	1.6803759053758815e-20
398.2088	0.011345357612111856	0.016536576521906057	0.08439669273802498	5.392243524634915e-07	2.9494140055158513e-19
398.3373	0.011635636120373783	0.05384643618114542	0.125083482109803	4.2837957730869956e-06	4.706268378258126e-18
398.4659	0.011941370882362159	0.14809026446466803	0.17865531971961787	2.937937435050404e-05	6.856485803946942e-17
398.5945	0.012263569839624917	0.34365807847738183	0.24582957104381287	0.00017365420820300307	9.100359276634976e-16
398.7231	0.012603596542297115	0.6729101995906103	0.3258775746014345	0.0008846206342775439	1.10039234634336e-14
398.8516	0.012962681610858048	1.1114175846690848	0.41610286127450175	0.0038795671797801205	1.209968572766753e-13
398.9802	0.01334307768335968	1.5496234895354501	0.5119623359369757	0.014681255901870995	1.2143914812974479e-12
399.1088	0.013746411182971102	1.8230795641758564	0.6068446155946073	0.047881982638215345	1.1103896355520907e-11
399.2373	0.014174471487480673	1.8098671599540677	0.6929160888677042	0.1344887918764893	9.234725123922201e-11
399.3659	0.014630328041610385	1.516158151370287	0.76231961408065	0.3258390923439286	7.008680449345019e-10
399.4945	0.015116379050018636	1.0716989752543775	0.8079709083658502	0.6803764398253969	4.845968774025775e-09
399.623	0.015635298474092712	0.6394915594661958	0.8250034830026424	1.223914246312423	3.048254539873015e-08
399.7516	0.016191418396735262	0.32187074136050803	0.8115800628905191	1.8984765973945414	1.7494082904931388e-07
399.8802	0.0167883891774272	0.13669690726744765	0.7691466246107516	2.537981721370281	9.146673923729472e-07
400.0088	0.01743086277470798	0.04898536882891257	0.7022456996895651	2.924157199155085	4.356796538712636e-06
400.1373	0.018123661282222536	0.014826449965179796	0.6177615000343074	2.903817983991643	1.8885282027434365e-05
400.2659	0.01887412023422588	0.003783234340821564	0.5235012783574784	2.4853628107878127	7.466604642935227e-05
400.3945	0.019689046938119396	0.0008145538766705059	0.4273825986252907	1.8333238345153033	0.0002689396917235868
400.523	0.02057634579788154	0.0001481874869761691	0.33620603233427826	1.1659921197344367	0.0008817249760632976
400.6516	0.021547615863140898	2.2718857017851896e-05	0.254754314597192	0.6389298572226024	0.0026360915485514947
400.7802	0.02261440518039046	2.938948178509682e-06	0.1859686660364535	0.30174475873276013	0.007179924873616814
400.9088	0.023791409448043362	3.207952162291115e-07	0.13078567699192548	0.12281609121051308	0.017816048115080273
401.0373	0.025095401826802036	2.96025003070757e-08	0.08863812142197056	0.043119990140022976	0.04025086288546481
401.1659	0.02655026683284512	2.300820417513107e-09	0.057857266305128816	0.013037741553955566	0.08290147754610423
401.2945	0.028182125832060975	1.5089246592080725e-10	0.03638291214168998	0.0033974655898279032	0.1555540820935898
401.423	0.03002338416109933	8.369297217018471e-12	0.022050311634643868	0.0007639522328327499	0.26580752704930977
401.5516	0.03211992448802107	3.908338743032832e-13	0.01286978338751356	0.00014788600683839312	0.4139825311455825
401.6802	0.034525777742345796	1.5400183985588916e-14	0.007236522622025914	2.4672715128320622e-05	0.5873930742853972
401.8087	0.037310970005608166	5.134146641541867e-16	0.003921968612901825	3.553168786282899e-06	0.7591659632004538
401.9373	0.04057597717547663	1.4405235207035427e-17	0.0020468205013179012	4.403661001271583e-07	0.8940856687953075
402.0659	0.044449172403939106	3.4103813420898433e-19	0.0010291000137249064	4.7037139626971214e-08	0.9592981443391843
402.1945	0.049111093848913746	6.812649385462466e-21	0.0004984683530106329	4.3300898984319926e-09	0.9376918484019315
402.323	0.05481274303761451	1.1520390241757056e-22	0.00023274666822964838	3.4424112930651614e-10	0.8351291163358222
402.4516	0.061934775639539245	1.6386970005894407e-24	0.00010463583332353511	2.354111048807256e-11	0.6775724833652128
402.5802	0.07102805235121032	1.9668019576069288e-26	4.5318923294092374e-05	1.3874588695612679e-12	0.500829568800004
402.7087	0.08292847715735972	1.9990916645685548e-28	1.8922668481377186e-05	7.064374570379029e-14	0.33736924614788466
402.8373	0.0989583954704308	1.70849241395499e-30	7.606738459875881e-06	3.0929654541812853e-15	0.20698329232194587
402.9659	0.1210670450237228	1.2320374414160824e-32	2.945891647021005e-06	1.1670928385896137e-16	0.11569035563455021
403.0945	0.15181126525229477	7.496615947682147e-35	1.0991000682380076e-06	3.795462659581248e-18	0.05891028001922459
403.223	0.19299677294693893	3.864970038872265e-37	3.9537729397490444e-07	1.0668055711468333e-19	0.027345898291187148
403.3516	0.24209909699784332	1.6745798508057103e-39	1.3691440655036693e-07	2.57722759524005e-21	0.011557974294867898
403.4802	0.2902997886700363	6.122039056232179e-42	4.5676072443560305e-08	5.365982533766482e-23	0.00445044378659008
403.6087	0.32961346338739894	1.8971334840786432e-44	1.4693327496618164e-08	9.659564855856225e-25	0.0015625231889313832
403.7373	0.35862235707851076	4.938630080369764e-47	4.549636727519655e-09	1.4940399948092674e-26	0.000499394397640024
403.8659	0.3794675673934674	1.0847898429678372e-49	1.3571737930287664e-09	1.9915713421393377e-28	0.00014540954858652624
403.9944	0.39462747479744265	2.0205440728789698e-52	3.9041256455023714e-10	2.2961059950742536e-30	3.8613406940262586e-05
404.123	0.40595458874927975	3.1602818296573436e-55	1.0809347715955029e-10	2.2737031120771994e-32	9.332177301308475e-06
404.2516	0.4146433632926293	4.1707466085609546e-58	2.8832172663025995e-11	1.9404594156767724e-34	2.0547543387516346e-06
404.3802	0.42147772394217003	4.644428714244527e-61	7.408963135073422e-12	1.427264145074634e-36	4.1216289947044616e-07
404.5087	0.4269694309833493	4.38797163822481e-64	1.8361892789112384e-12	9.083795968441465e-39	7.542228231893088e-08
404.6373	0.4314740835446982	3.4793705348625297e-67	4.3793985360782333e-13	4.963355031936256e-41	1.2557531021989156e-08
404.7659	0.43522695098663333	2.3279200225110087e-70	1.0062680219937103e-13	2.337288361210635e-43	1.904762861271931e-09
404.8944	0.43839580368367653	1.3219666234921792e-73	2.2301321604356745e-14	9.52715141928101e-46	2.636293341666284e-10
405.023	0.4411088006449655	6.2980519431459744e-77	4.756053826812694e-15	3.332791932829727e-48	3.319143176924781e-11
405.1516	0.4434545798719507	2.531759748215142e-80	9.771586992546636e-16	1.0048062299948259e-50	3.807065128246331e-12
405.2802	0.4455020408252232	8.587549402050487e-84	1.934129840662225e-16	2.610871039261368e-53	3.9782007190642515e-13
405.4087	0.4473027445666919	2.4736057162753926e-87	3.6929569662209835e-17	5.874936043729168e-56	3.794242528319889e-14
405.5373	0.44890067709709097	5.974418028968048e-91	6.784404404283921e-18	1.1340035752672499e-58	3.2909180811421327e-15
405.6659	0.4503269086547776	1.217562441276702e-94	1.200746665017802e-18	1.8864907868042435e-61	2.600405773052068e-16
405.7944	0.4516065402583391	2.1080135319168502e-98	2.050203290144708e-19	2.7186929867496267e-64	1.8758649201958598e-17
405.923	0.4527626216670392	3.059055833064404e-102	3.367856244885114e-20	3.359762748344657e-67	1.2303288580389269e-18
406.0516	0.45381132624528747	3.745690744704371e-106	5.32981759500161e-21	3.578376542361569e-70	7.351448600402806e-20
406.1801	0.4547661516139228	3.8979385994927945e-110	8.137945909340162e-22	3.3027771604130645e-73	4.011025378268654e-21
406.3087	0.4556403978779386	3.398583005303314e-114	1.195337535577724e-22	2.613153245816226e-76	1.989311179507546e-22
406.4373	0.456443201212718	2.500295123645099e-118	1.6914863475054754e-23	1.7818841710368046e-79	8.988394022621174e-24
406.5659	0.45718293507317226	1.552083819077024e-122	2.3059432634124774e-24	1.0471841124396363e-82	3.699930333422183e-25
406.6944	0.4578662076132295	8.192699769113388e-127	3.033351666801135e-25	5.33559958399311e-86	1.3911104383818266e-26
