energy	step1_	g1_	g2_	g3_	g4_
279.6126	0.010647945910368663	1.6636299495739148e-50	3.850786448672441e-74	1.2626878938555495e-26	8.075483293810541e-85
279.8112	0.010888989514467	7.154342527890793e-47	1.9855270334316978e-69	2.566749006731121e-25	9.631573080167803e-81
280.0097	0.01114106468293046	2.2374302320817043e-43	7.106859078079301e-65	4.804288868284288e-24	9.053439793652806e-77
280.2083	0.011405218326090599	5.130003256154033e-40	1.7846101003351483e-60	8.304528992773439e-23	6.7689427941917e-73
280.4069	0.01168219653245759	8.587741379050068e-37	3.1270820963041923e-56	1.3237052399708285e-21	4.006745836432609e-69
280.6054	0.011972805982502159	1.0459558847756115e-33	3.8058070530621014e-52	1.9430280581205063e-20	1.8698365231428446e-65
280.804	0.01227839327984282	9.33533321064122e-31	3.247745398702077e-48	2.6336245484423316e-19	6.938300634940825e-62
281.0026	0.012599980074776009	6.0833031315538875e-28	1.9339599645203095e-44	3.2916908517984857e-18	2.038291594869894e-58
281.2011	0.012938680734895947	2.8855493494275737e-25	8.003142449901791e-41	3.789211953750551e-17	4.7225178532142875e-55
281.3997	0.013296267797767467	1.0025205414782409e-22	2.3209475352289573e-37	4.0272870421459965e-16	8.696917153328433e-52
281.5983	0.01367416944473099	2.5430285236289936e-20	4.6967818965152525e-34	3.946995761098636e-15	1.2680044630459147e-48
281.7969	0.014074166236072059	4.709798861608513e-18	6.632324352463909e-31	3.567065830709408e-14	1.463659162745155e-45
281.9955	0.014498252932567497	6.368639511192303e-16	6.535238094371049e-28	2.972665055741698e-13	1.3375895097131781e-42
282.194	0.01494843784591529	6.273563202137746e-14	4.479174944518645e-25	2.2820972440727603e-12	9.64617640648652e-40
282.3926	0.015427702498276888	4.52286603218665e-12	2.149477758588054e-22	1.6172140559050862e-11	5.5260730663875025e-37
282.5912	0.015938690126494605	2.380709188401085e-10	7.197773562836024e-20	1.0567962348294676e-10	2.5063503023108204e-34
282.7897	0.016484370971437717	9.133318366777219e-09	1.677414429519813e-17	6.36240777367616e-10	8.973659095423853e-32
282.9883	0.017069008211615562	2.563163797794894e-07	2.7355513527466963e-15	3.5354423288067797e-09	2.5513687932587606e-29
283.1869	0.01769659566868218	5.251910325130952e-06	3.113003886966686e-13	1.8115753544123618e-08	5.743024064456703e-27
283.3322	0.0181857608905434	3.9204477347681876e-05	7.915956875255468e-12	5.687491930432386e-08	2.6057244352950204e-25
283.4315	0.018535900592293545	0.00014057443508632095	6.468514388754869e-11	1.2123931141845009e-07	3.2882672599200525e-24
283.5307	0.01889939804559966	0.00046539146154634536	4.821459389496514e-10	2.5307309612141734e-07	3.9045964577805925e-23
283.63	0.019277808281690092	0.001426001790406789	3.2914262751844e-09	5.180512250124492e-07	4.384521245643837e-22
283.7293	0.01967166175144154	0.004038964396410262	2.0536305855176237e-08	1.0391949532650808e-06	4.64418095167558e-21
283.8286	0.020081922240718874	0.010574705304917015	1.1710975956248446e-07	2.0427675495040795e-06	4.640203400521643e-20
283.9279	0.02050963532277503	0.02559262399962808	6.103745656736514e-07	3.934943208922768e-06	4.373265401644328e-19
284.0272	0.020955937208992005	0.05725450356690938	2.907584470547984e-06	7.42772103801639e-06	3.887904438027213e-18
284.1265	0.021422064772600266	0.1184002951569514	1.265904158145689e-05	1.3739480048677037e-05	3.260365284943834e-17
284.2257	0.021908865059185843	0.22619240324320708	5.030573607112651e-05	2.4890114973280666e-05	2.5737484778966015e-16
284.325	0.022418792136207236	0.3997165476297163	0.00018297446391797484	4.421256129317412e-05	1.9205436465880957e-15
284.4243	0.022952979746599433	0.6529418944495278	0.0006082694885409853	7.695946578281845e-05	1.3518334586360837e-14
284.5236	0.02351319818965049	0.985928081679033	0.0018481369697317335	0.0001312731815965523	8.975592607938865e-14
284.6229	0.024101393957519233	1.376145114206657	0.005132215103422687	0.00021942574177856675	5.621393721942643e-13
284.7222	0.02471971216862804	1.7755443429152313	0.013025911392086562	0.0003594154455059996	3.320976538916534e-12
284.8215	0.025370522510526353	2.117615502838414	0.030216486358947154	0.0005769039269269598	1.8506681119498336e-11
284.9207	0.02605573997148218	2.3344549816378417	0.06401818552772891	0.0009070144120697163	9.712234935595205e-11
285.02	0.026779657550242305	2.3792061252664185	0.12406340401461058	0.001398057409506378	4.816031443775137e-10
285.1193	0.027544847179263934	2.241439028200061	0.2197437839684036	0.002111705837718038	2.2526845443389313e-09
285.2186	0.028354932278893817	1.9519562724569859	0.35573129872309456	0.0031256434307629435	9.939221659074498e-09
285.3179	0.029213971965645007	1.571308766782047	0.5263324306859277	0.004533598357868401	4.1366169197306126e-08
285.4172	0.030126528363227937	1.1692335731183348	0.7117553765989297	0.006443832592907287	1.6239743408208563e-07
285.5164	0.031096737285031116	0.8045817019710287	0.8795508563207436	0.008972274827398359	6.006121678314712e-07
285.6158	0.032133451464485124	0.5113586977803884	0.9937330380477055	0.012250094945052348	2.1007272762957288e-06
285.715	0.033239108522940035	0.3007183261832911	1.025991494730619	0.016379879289638345	6.913812154058134e-06
285.8143	0.03442449321686397	0.16339065317841317	0.9682422357889221	0.021468967442888228	2.149021186753024e-05
285.9136	0.03569718403633212	0.08206213596153739	0.8351353346167971	0.027574599614205605	6.300931375512336e-05
286.0129	0.037067149595449655	0.03809839841639095	0.6583582292970945	0.034706024594748475	0.00017426482453534355
286.1122	0.038545928314371466	0.016350043627350232	0.4743514705936201	0.042805356911857786	0.00045462744336072464
286.2115	0.040146948318618515	0.006486036777609101	0.3123710716963936	0.05173553829787805	0.0011187743327441275
286.3107	0.04188410181218117	0.0023809163305868308	0.18811162717223331	0.06126435145026868	0.0025948647196684478
286.41	0.04377939024092975	0.00080711534847412	0.103488164933942	0.07110542704744087	0.005682101239295947
286.5093	0.04585309127800802	0.00025291545736468723	0.05203532907520246	0.0808714546717979	0.01173664975523698
286.6086	0.048131437670591484	7.325941289463404e-05	0.02391324416498295	0.0901333179220704	0.022867582411903793
286.7079	0.0506460229471554	1.9615518361981293e-05	0.0100441054696734	0.09844032953127493	0.04202786149714365
286.8072	0.053435230103660414	4.854946395952677e-06	0.003855818689735876	0.10535577756059597	0.07286102272234311
286.9065	0.05654613728387141	1.1107527148529116e-06	0.0013528651741176105	0.11049465031495119	0.11915003238282705
287.0057	0.06003336465210435	2.352855608839748e-07	0.00043435224112896596	0.11355707769812456	0.18372031731836433
287.105	0.06397703001114176	4.600014508483164e-08	0.00012731643501597757	0.11436711397740038	0.26733971990563576
287.2043	0.06846669279669133	8.31326110767266e-09	3.4108250637364574e-05	0.11287186821994405	0.3669532358164016
287.3036	0.07362195188756614	1.3887751456411243e-09	8.351548264032375e-06	0.10916108965148877	0.47511515746213195
287.4029	0.07959924837869788	2.1445725563457044e-10	1.8689906051525902e-06	0.10345407649021511	0.5802671446943253
287.5022	0.08660680079673826	3.0612432963871336e-11	3.822784485584503e-07	0.09607822068130578	0.6684947601225862
287.6015	0.09492714711237434	4.039273352560404e-12	7.146363201720866e-08	0.08743793495127805	0.7264554144318275
287.7007	0.10494084134273778	4.937354412093179e-13	1.2232503570581848e-08	0.07798784787930703	0.7446681549821395
287.8	0.1172233481136691	5.5671212650503784e-14	1.9104035249835377e-09	0.06815628896836785	0.7200806483037341
287.8993	0.1325740458370059	5.802502741992676e-15	2.7268888981476534e-10	0.05836903758576414	0.6568110165162466
287.9986	0.1521994590941418	5.590470005844152e-16	3.5574790422211744e-11	0.04898427976030041	0.5651199620484835
288.0979	0.1779389145065528	4.9788562043393846e-17	4.241796506899139e-12	0.040283622576093706	0.45865042412946466
288.1972	0.21261725754739327	4.098822764975305e-18	4.622637982716179e-13	0.03246369183922553	0.3511267216403528
288.2964	0.2603718386155551	3.1273801605567576e-19	4.6152045133499886e-14	0.0256432210968348	0.2536541806564698
288.3958	0.3266872189830191	2.194133938435968e-20	4.191483012092873e-15	0.019839443079224903	0.1727232652126938
288.495	0.4146158559276552	1.4307048384535984e-21	3.4963315571106566e-16	0.01504932668976662	0.11103551733553998
288.5943	0.5178490798715988	8.600172692562184e-23	2.6590242612404393e-17	0.011183705245083757	0.06730282051481969
288.6936	0.6175726893164826	4.778731090721382e-24	1.8482663774968057e-18	0.00814426604555934	0.0384809283353161
288.7929	0.6982410525211858	2.4545184868454424e-25	1.1741927644717151e-19	0.005811868631955905	0.020753853535740354
288.8922	0.7576308580316543	1.1653820291613893e-26	6.817840077546597e-21	0.004064220139120286	0.010558272959691167
288.9915	0.8004118262371891	5.114681803799087e-28	3.6181518813848265e-22	0.002785070897557058	0.00506673224860082
289.0908	0.8316535787644015	2.0749957832486468e-29	1.754928191169033e-23	0.0018702208057142942	0.0022935275161919955
289.19	0.8550336357575683	7.807595318510881e-31	7.804533826195173e-25	0.0012312168913251936	0.000980179986393195
289.2893	0.8730408309011058	2.706742077397258e-32	3.162452520344872e-26	0.0007939538390217493	0.0003948109880440916
289.3886	0.8872394138906153	8.674106457528248e-34	1.1712069315985509e-27	0.0005017109020753963	0.00015000770356434314
289.4879	0.8986798882070963	2.5695135724136384e-35	3.9643850302384335e-29	0.0003106772274822417	5.3762421969313574e-05
289.5872	0.9080721669460028	7.035992671841504e-37	1.2264521093693202e-30	0.00018852237425990233	1.8175443588049845e-05
289.6865	0.9159083432184728	1.7809352717861062e-38	3.467831082271283e-32	0.0001121021592404616	5.796050275454316e-06
289.8354	0.9254797937738208	6.200635137568318e-41	1.395521761262131e-34	4.950039014321016e-05	9.361167964437662e-07
289.9347	0.9307551753926415	1.2894273151395193e-42	3.1513385231545994e-36	2.798067096472685e-05	2.579836954163964e-07
290.034	0.9353426795994425	2.4785965989958635e-44	6.504083037683383e-38	1.549905517672682e-05	6.706492020751716e-08
290.1332	0.9393632263491037	4.422246914989233e-46	1.2318727636921378e-39	8.418245273643338e-06	1.646899172938213e-08
290.2325	0.9429214723352805	7.26411903564966e-48	2.1240334979844674e-41	4.477882918941488e-06	3.809584090465596e-09
290.3318	0.9460890451535672	1.1029890761855104e-49	3.3472599683799854e-43	2.334110919316382e-06	8.312450046374427e-10
290.4311	0.9489264006150854	1.548131205261293e-51	4.821143950636856e-45	1.192251407526036e-06	1.7108875406876633e-10
290.5304	0.9514822296338858	2.0085960878097193e-53	6.346632154289351e-47	5.967766120722432e-07	3.321657195185752e-11
290.6297	0.9537961662021258	2.4089387329965792e-55	7.636056442767685e-49	2.927206377672976e-07	6.083157870218802e-12
290.729	0.9559007856130347	2.670589832398682e-57	8.397064816320022e-51	1.4069947861313845e-07	1.0508586321344964e-12
290.8282	0.9578212473274476	2.7495238745488842e-59	8.479104709025601e-53	6.632281126781528e-08	1.7155630752963616e-13
290.9275	0.9595839865830716	2.6047731880128976e-61	7.78955886749411e-55	3.0613016887718186e-08	2.6371163957942358e-14
291.0268	0.9612060004595623	2.2810280456105345e-63	6.540460127963609e-57	1.384672071833927e-08	3.823779484307892e-15
291.1261	0.9627034189452393	1.8464588420584688e-65	5.019220956064504e-59	6.137412758185122e-09	5.229947264567976e-16
291.2254	0.9640900080001585	1.3816464723851179e-67	3.520439621406316e-61	2.6657617250652594e-09	6.74749718227966e-17
291.3247	0.9653775856120926	9.55658061895641e-70	2.2567843381627376e-63	1.1346317227250287e-09	8.211623806774656e-18
291.424	0.9665763533079162	6.110213952308926e-72	1.3222567466843116e-65	4.732450853898954e-10	9.426626709355347e-19
291.5233	0.9676951624331359	3.6112587043500476e-74	7.08066581437738e-68	1.9342602222868172e-10	1.0207620256530675e-19
291.6225	0.9687407097041417	1.9833746497512555e-76	3.4842653635103306e-70	7.754358737823116e-11	1.0450670693833045e-20
291.7218	0.9697218554406458	1.0017005757002738e-78	1.5587412164996958e-72	3.043538052575466e-11	1.0069774814669895e-21
291.8211	0.9706434538771195	4.676483249217791e-81	6.373373763528584e-75	1.1706017809083502e-11	9.152427251039589e-23
291.9204	0.9715107522448431	2.0181299945273157e-83	2.381756343790768e-77	4.4120174585275356e-12	7.846820959644943e-24
292.0197	0.9723284003932806	8.050580289527618e-86	8.135005417026989e-80	1.629531879999875e-12	6.345884049543571e-25
292.119	0.9731005332479175	2.9686126140904417e-88	2.539515896619809e-82	5.897746448541929e-13	4.8409595379777766e-26
292.2182	0.9738301244558172	1.0177243458139976e-90	7.288847479812297e-85	2.0939423077015265e-13	3.492813819541173e-27
292.3175	0.9745219442016735	3.2069152867363234e-93	1.9008876171652703e-87	7.277664105985438e-14	2.3709486983378644e-28
292.4168	0.9751782007488179	9.340994283692605e-96	4.530922084739797e-90	2.478659667033454e-14	1.5181329569978105e-29
