energy	step1_	g1_	g2_	g3_
395.7192	0.010127365596243887	4.676619297026247e-36	6.417841517052519e-22	3.7349232245459096e-35
395.9692	0.010403091123805719	6.129918723385841e-33	2.0374506178363126e-20	3.13637404599723e-33
396.2182	0.010693047671894496	5.5872074996442865e-30	5.619732231620286e-19	2.2793691177353113e-31
396.4682	0.011000891118153111	3.740462311995001e-27	1.383075525003158e-17	1.4838602553304558e-29
396.7182	0.01132697736108268	1.7884107872414797e-24	2.9962735810139505e-16	8.503087358062372e-28
396.9672	0.01167155068707132	5.970058497334122e-22	5.648216203716407e-15	4.2234247967063586e-26
397.2172	0.012039252637074671	1.4579021210083107e-19	9.485911127371709e-14	1.8762062310004797e-24
397.4672	0.012430864317019508	2.542668038094512e-17	1.402336009951316e-12	7.33671549354724e-23
397.7162	0.012847067209336926	3.1086525992682937e-15	1.8066883727627173e-11	2.490526221996462e-21
397.9662	0.013293938283377549	2.769116777581848e-13	2.070563025835109e-10	7.54995551962258e-20
398.2162	0.01377299741664395	1.7616590761293953e-11	2.0888100825267376e-09	2.014665562985507e-18
398.3492	0.014042192608028414	1.3991142506462315e-10	6.781911757819978e-09	1.0974848037779847e-17
398.4492	0.014251624080021619	6.240849830105775e-10	1.6053799129952693e-08	3.833570313256914e-17
398.5992	0.014577744279761662	5.314629766713225e-09	5.627272525342565e-08	2.4087537209262757e-16
398.6992	0.014803571923225511	2.071992475950684e-08	1.2658019386844676e-07	7.995385984206559e-16
398.8492	0.015155734162070555	1.4417978250460997e-07	4.1100684761030505e-07	4.653627071558819e-15
398.9492	0.015399960044229444	4.912970205586368e-07	8.78534830010315e-07	1.4678468037052827e-14
399.0482	0.015649616460670146	1.568263455153962e-06	1.8265819541537498e-06	4.485907825470383e-14
399.1982	0.016043682366877865	8.231665973898337e-06	5.329958890705532e-06	2.3464099088029545e-13
399.2982	0.016317596717407734	2.3243196483325084e-05	1.0609657956958915e-05	6.892243862908082e-13
399.4482	0.016746449615662573	9.968997321675483e-05	2.8678026193112812e-05	3.339468498662863e-12
399.5482	0.017045085974181196	0.0002460278092825843	5.424614730364338e-05	9.321294313426683e-12
399.6482	0.017354556027389334	0.0005753429053579715	0.00010053687644506149	2.5492471220560223e-11
399.7982	0.017840398546919656	0.0018598763005087805	0.00024414155736207443	1.1096783214801186e-10
399.8972	0.018176220105410035	0.0037753944981782092	0.0004275886853137078	2.856742075057196e-10
400.0472	0.018709809093175156	0.009980617186479798	0.0009621408448201805	1.1522648664780046e-09
400.1472	0.01908326598350496	0.01783951628194257	0.0016105269960156477	2.8461704484415335e-09
400.2472	0.019471916304127368	0.030214721306460045	0.002641400243305026	6.888209341546808e-09
400.3972	0.02008546871569089	0.06020261069691002	0.005339678499080055	2.4960660574101573e-08
400.4972	0.020516415067469596	0.0891200557148105	0.008321917994218322	5.740419422444893e-08
400.6462	0.021193910063493526	0.1446845383208544	0.015520912174686406	1.9116856676598817e-07
400.7462	0.021674225861599172	0.187301284075724	0.022990918084579294	4.17863833852193e-07
400.8462	0.02217678115113919	0.22975725245232065	0.0333681580576706	8.94931783335098e-07
400.9962	0.02297580738705063	0.2821664635155697	0.05615361274091755	2.6996299803288214e-06
401.0962	0.023541206577783302	0.30252305353800113	0.07744542025385444	5.494162602676707e-06
401.2462	0.024443374630211845	0.303585867331111	0.12072699388380535	1.5352496113117728e-05
401.3462	0.02508416080877013	0.28448491098066836	0.1582211523590905	2.9690559408077182e-05
401.4462	0.025759372680759396	0.252607804969301	0.20317091992779354	5.625933726610326e-05
401.5952	0.026835521451968825	0.1914936031069638	0.28394190467635405	0.00014039175577770997
401.6952	0.02760951725444133	0.14869634959223954	0.34654309103201636	0.00025284163312934833
401.8452	0.028857770749117995	0.09197352160972315	0.4497078451283967	0.0005881534482035926
401.9452	0.02975440538298485	0.06242139322950744	0.5215552672078286	0.0010065601837871319
402.0452	0.030708366622162475	0.04014338053305341	0.5926619626205493	0.0016878183104462922
402.1952	0.03225938453247945	0.01871449547610855	0.6909533428442124	0.0035272496832361184
402.2942	0.0333715186696818	0.010582808666099546	0.7456035101944961	0.005594803788352259
402.4442	0.03521010345555675	0.004034622320220875	0.8054632610293107	0.010834066427017126
402.5442	0.036552155274042875	0.001983199867579407	0.8266569536577043	0.016407798315082534
402.6942	0.038767682652575575	0.0006178105727083043	0.8272300320487986	0.029432023407373168
402.7942	0.04039935909576353	0.00026542604759432147	0.8067667636720536	0.04235659627669343
402.8942	0.042173580734767846	0.00010805418361174901	0.7709150978145767	0.05972536795685746
403.0442	0.0451456155390636	2.5370680162347775e-05	0.6930681942432817	0.09624919227424068
403.1432	0.04734604249937541	9.123433637444658e-06	0.6299984862717709	0.12860269389572082
403.2932	0.051117530196364	1.7518083925920035e-06	0.5248135610176561	0.19203679547921138
403.3932	0.05398100464901362	5.450894323455075e-07	0.45293561308394514	0.24456544723043147
403.4932	0.057180666823525905	1.607158703812666e-07	0.38300525928527657	0.3051705320420541
403.6432	0.06275065915990669	2.3258875947537188e-08	0.2866412760589264	0.40939772733358404
403.7432	0.06709916141141814	5.993828749515833e-09	0.2303292614214197	0.4854394216240488
403.8932	0.07485978449816255	7.087959007309324e-10	0.1596784408376014	0.6032551687615418
403.9922	0.08102345618302881	1.6208797270508167e-10	0.12226837368580123	0.6789821223784333
404.0922	0.08834439393425664	3.461264183990446e-11	0.09149389558100654	0.7497484054037139
404.2422	0.10209698811981638	3.0874799075278933e-12	0.057002077356587876	0.8373035960706473
404.3422	0.11380659102009405	5.762523427413448e-13	0.04053319004946439	0.8785819689006781
404.4922	0.13707923472912292	4.2001906565464227e-14	0.023392278530440094	0.9088932311550924
404.6922	0.18618588132625508	1.0591200430328575e-15	0.010464869427225052	0.8853859217385794
404.8412	0.2478819057135047	5.934421143420956e-17	0.005450443385486387	0.8233977586840246
404.9412	0.30989874904311066	8.021948752239284e-18	0.0034297435664426	0.7645725917510475
405.0912	0.4432913994695782	3.6039239462650335e-19	0.0016477372682262516	0.6584364755836579
405.1912	0.5484102844387498	4.2579616277134644e-20	0.0009852805282603882	0.5809851672281625
405.2912	0.6441536592617195	4.766918331649453e-21	0.0005772563019516851	0.5022882922301779
405.4412	0.7478533328025508	1.6141173967580082e-22	0.0002491514653168573	0.38861240514323725
405.5412	0.7936220398939852	1.5794129423663693e-23	0.00013871210001848637	0.3192616756253158
405.6902	0.8398231840937884	4.477556102148556e-25	5.580750385001394e-05	0.22935282256128836
405.7902	0.8614191002209678	3.83142313968073e-26	2.953073447864482e-05	0.17908737377987685
405.8902	0.8781422207743546	3.106626495493792e-27	1.5310618912957824e-05	0.13701328964458337
406.0402	0.8970483634500939	6.483744349027407e-29	5.501132212775979e-06	0.08824515520796818
406.4362	0.9273206091811041	1.3259795484571103e-33	2.9583323217758003e-07	0.022153558121801524
406.6862	0.9387965972340091	9.402677591440914e-37	3.963554886571257e-08	0.007851081333489163
406.9352	0.9471426582774312	4.911915436644968e-40	4.715761839471868e-09	0.002461244398648565
407.1852	0.9535224201905448	1.7789894978796614e-43	4.898035765551212e-10	0.000676196468743098
407.4352	0.9585357953605462	4.601584505700561e-47	4.478136588709547e-11	0.0001635295914725765
407.6842	0.9625628291709549	8.803957958604877e-51	3.641376952694573e-12	3.5036678825579726e-05
407.9342	0.9658917668381305	1.1631072464086014e-54	2.5809119781926484e-13	6.568686811099565e-06
408.1842	0.9686787833953818	1.0974205232948386e-58	1.6102230641403672e-14	1.0840254410412263e-06
408.4332	0.9710371502806395	7.689796682352983e-63	8.94861167174599e-16	1.5873305362295128e-07
