energy	step1_	g1_	g2_	g3_	g4_
526.351	0.011035744696996056	6.762742322190573e-19	7.16390046357423e-71	3.561758174809912e-44	4.823020611252046e-134
526.6509	0.011353382976635061	5.907648325107081e-17	1.4026983353343217e-65	2.8107054965101404e-41	1.9023280404869785e-126
526.95	0.011688915609341842	3.970332914898268e-15	1.6432609675773219e-60	1.732300573304143e-38	4.284940620112643e-119
527.2499	0.012045855945779966	2.0995935730947582e-13	1.2260013627986549e-55	8.63002184327745e-36	6.034336063625697e-112
527.5499	0.012425401536016198	8.646219827677576e-12	5.662396055442146e-51	3.4216486308292876e-33	5.100894716218693e-105
527.8489	0.012828238537011438	2.738232687154202e-10	1.55982099202857e-46	1.0573451783943398e-30	2.4468284013212152e-98
528.1489	0.013259541256977179	6.825040293191241e-09	2.7441888921889192e-42	2.6461315262161847e-28	7.382264974570625e-92
528.4479	0.013719245431172113	1.310448571237904e-07	2.888788224294261e-38	5.169279629146076e-26	1.2682575856080538e-85
528.7479	0.014213655250580392	1.97696363879167e-06	1.9359088174080093e-34	8.16574449046838e-24	1.365723666115885e-79
529.3449	0.015311648162308783	0.0002072358001642159	1.8897080816182446e-27	9.75876715591643e-20	2.969453047044829e-68
529.4449	0.015512358080321255	0.0004098384844672978	2.3220706027379327e-26	4.3015275709185644e-19	1.9273109392960118e-66
529.5949	0.015823478683371642	0.001081639563775129	9.043989084726756e-25	3.7941464044506104e-18	9.050646316930532e-64
529.6949	0.01603791368709254	0.0019947771264667347	9.716849475679162e-24	1.568705775107382e-17	5.089885503738369e-62
529.8439	0.016368415723208934	0.004714590343972832	3.0247598799043664e-22	1.2399093221192126e-16	1.85379586738967e-59
529.9439	0.016597968116469963	0.00811037589216709	2.8429836113887953e-21	4.809813006337899e-16	9.038417786066966e-58
530.0439	0.01683404453383879	0.013567616138334189	2.532396511765873e-20	1.818638253077973e-15	4.161253299640643e-56
530.1939	0.017201012748856555	0.027857702147677788	6.087392312872086e-19	1.2744513372873113e-14	1.1674454177954737e-53
530.2939	0.017454668710146688	0.043458198192231595	4.741037469027696e-18	4.520027135858081e-14	4.6571628117180135e-52
530.4439	0.017849481993956542	0.08035432367522914	9.317514793255264e-17	2.877514102618271e-13	1.0538128656518878e-49
530.5439	0.01812275457235203	0.11689596926865238	6.3449314246057905e-16	9.572709967480345e-13	3.642515662271616e-48
530.6429	0.018401654370976173	0.16481960696384887	4.0201765816527555e-15	3.0681619160347908e-12	1.1484879809658927e-46
530.7929	0.018840957336687062	0.2632828268933546	5.964302884180033e-14	1.7082080807188752e-11	1.92496798976422e-44
530.8929	0.019145652917690312	0.3474270015534422	3.367273841979279e-13	5.196954697770016e-11	5.44709268032047e-43
531.0429	0.01962160992659425	0.4997732619120084	4.08432333546407e-12	2.62851773274942e-10	7.36362163896132e-41
531.1429	0.019952265527040394	0.6150039625513638	2.016153564147362e-11	7.500992405029049e-10	1.8054514458232265e-39
531.2429	0.020294240935799856	0.7359500765676995	9.431939325509696e-11	2.0864424126788474e-09	4.180049259210326e-38
531.3929	0.020829731904893903	0.9142225127042788	8.629400851008496e-10	9.225452113093665e-09	4.1820536576547713e-36
531.4919	0.021198887464226147	1.0192246901037227	3.481293362873048e-09	2.384323407009604e-08	8.144005241510868e-35
531.6419	0.02178379391533684	1.1406470990462163	2.6061372092340326e-08	9.581041117597878e-08	6.57732603439693e-33
531.7419	0.022191969488487572	1.18732826648568	9.325613660365321e-08	2.3453674459685576e-07	1.1439318049584846e-31
531.8419	0.02261570736040744	1.2018654706493643	3.162506745857253e-07	5.596144805816223e-07	1.878677084074464e-30
531.9919	0.023282494085642362	1.1615324045728175	1.7857722961528302e-06	1.965874375273664e-06	1.1229100376243778e-28
532.0919	0.02374925861508597	1.0964283138013633	5.294986628856004e-06	4.399805397547938e-06	1.5979017133244283e-27
532.2419	0.024485513139480213	0.954226570382346	2.4444806666762e-05	1.4041055929584159e-05	7.703224086422747e-26
532.3409	0.024996917764685444	0.841159231621566	6.278969418491296e-05	2.9262498342855895e-05	9.264978001163482e-25
532.4409	0.025535595110525736	0.720241061077391	0.00015435441612375852	5.989351857705062e-05	1.0793264304156827e-23
532.5909	0.026388493538623076	0.5415334209948363	0.0005379335801228553	0.00016715994013531964	3.854164645191523e-22
532.6909	0.026989388098755406	0.4324030877232328	0.0011562296250043282	0.0003209225893630645	3.890377800488641e-21
532.8409	0.027943719343264548	0.2927736351851837	0.0032944339703907407	0.0008136772064362049	1.1204664902678177e-19
532.9409	0.028618235939996576	0.21800143273905448	0.006191287766563888	0.0014652775185499546	9.799715850693152e-19
533.041	0.029326752323099357	0.1577996350740843	0.011033011489948855	0.002573393896672648	8.110241491127976e-18
533.1899	0.03044786106408387	0.09264750198147405	0.02358785050279897	0.005671748885156585	1.6910073625398088e-16
533.2899	0.031250010948815	0.06257658323493823	0.03675195568261967	0.00934061451887754	1.2107749587861194e-15
533.4399	0.03253545632623417	0.03296301593304604	0.06462970069828385	0.0188153747859221	2.083316001652942e-14
533.5399	0.033452604858047706	0.02076198788966536	0.08804586770889508	0.02906504394677852	1.292486980035223e-13
533.6899	0.03492915292540818	0.00984872063122683	0.1265866150304572	0.05318729348564308	1.7936906296895912e-12
533.7899	0.03598780970672296	0.0057847643507186915	0.15078195349340104	0.07706650376088753	9.642100683134304e-12
533.89	0.03711350477682928	0.0033022334193502146	0.1702259644418003	0.10887988588047559	4.902189399515841e-11
534.0389	0.03892395719623742	0.0013618724395790028	0.18456129056723988	0.17361287901081346	4.951552208982006e-10
534.1389	0.04024180028962419	0.0007255929165286837	0.18226114826518974	0.2300543363472712	2.179058082962409e-09
534.2889	0.042393791610750665	0.0002677785803481072	0.16172899461136242	0.3344667055851915	1.8066531976999193e-08
534.3889	0.04396020383285559	0.00013304430793141476	0.13964523333907716	0.4157201091873467	6.8889864967582e-08
534.489	0.04564773770830651	6.423331259555806e-05	0.11424559951061672	0.5037404170471604	2.4835964535063677e-07
534.6389	0.048429896869936505	2.0486096537373615e-05	0.07648389455751699	0.64013383077041	1.522034858595914e-06
534.7379	0.05045947389902498	9.305327244517091e-06	0.054920737779643285	0.7266047052734266	4.696143640925812e-06
534.8879	0.05387738818233113	2.671691855729275e-06	0.030077734620227035	0.8392787672266357	2.326119300452516e-05
534.9879	0.05642257828801859	1.1228492178422328e-06	0.01882608446937747	0.8948386843603354	6.291713536752106e-05
535.088	0.05922017990175801	4.5848738058894677e-07	0.011161184699298365	0.9299814373721258	0.0001608429061746594
535.2379	0.063962447413489	1.1378129768534781e-07	0.004613128022822254	0.9390537121633125	0.0005890867413825755
535.338	0.06756934185764694	4.332218504269457e-08	0.002390959554826731	0.9153597636781049	0.0013046771832789742
535.4879	0.07378664734759881	9.682332134186849e-09	0.0008080586350703388	0.8397214664627893	0.003854537667392626
535.5869	0.07854717686362903	3.477451633723861e-09	0.00036944604895845594	0.7685936831657707	0.00734534982818451
535.687	0.08401319964929962	1.2009058737574151e-09	0.00015872240872985256	0.6850939067929576	0.013315354336568424
535.8369	0.09374075779570859	2.3189803346751927e-10	4.050215738144148e-05	0.5496907512471624	0.029144984806540538
535.937	0.10154995369678549	7.46755553459746e-11	1.5212192290546671e-05	0.45956143729014987	0.04577147685727397
536.0869	0.11590134699148458	1.2986516899259429e-11	3.1740747589201467e-06	0.3349956652343808	0.0808161060166378
536.187	0.12784502109254187	3.899488149345862e-12	1.042214788845959e-06	0.2626855549480364	0.10995623523577477
536.2869	0.14231809545901264	1.1414164562820714e-12	3.250580226909404e-07	0.20087929390635245	0.14118896766574177
536.4359	0.17053365343325877	1.7343540721478581e-13	5.176282174880685e-08	0.1283969679525094	0.18432250091310196
536.5359	0.1958016465424488	4.729676795937511e-14	1.4107328120617046e-08	0.09209871035588585	0.20524967469179528
536.6859	0.24818311583254843	6.39175190030594e-15	1.8148827125525457e-09	0.053327529119631685	0.21659752198751153
536.7859	0.2967433785843039	1.625464427749966e-15	4.3247413041449746e-10	0.035879790425461994	0.20898287632540277
536.8859	0.35933933386823225	4.019764166315936e-16	9.766649507367765e-11	0.023530339643348816	0.19040097106931744
537.0359	0.47797088445780916	4.6911911253167586e-17	9.477359713216201e-12	0.011910922117971881	0.14870366270052643
537.1359	0.5627939590583261	1.0818575804555079e-17	1.871361018817163e-12	0.00732695186838316	0.11739057175982125
537.2849	0.6722467201995471	1.1544141699614877e-18	1.5105569823614956e-13	0.0033874436378255354	0.07420599325418173
537.3849	0.7279351601925742	2.483326480683457e-19	2.6093079258881298e-14	0.0019550635928693087	0.05078700679119134
537.4849	0.7707036790016306	5.19483232881878e-20	4.271569259801735e-15	0.0010998401279880721	0.03282218516560926
537.6349	0.8169744612485452	4.716566940643522e-21	2.5582571122411796e-16	0.00044231565574658115	0.015314563500358876
537.7349	0.8395055764583873	9.200842114352629e-22	3.661769936987545e-17	0.00023339988595384657	0.008575759474920999
537.8849	0.8650727132338899	7.522770925297327e-23	1.79297779438688e-18	8.52712978458135e-05	0.003227300213660491
537.9849	0.8782321004812332	1.368495185297104e-23	2.2439156173067483e-19	4.22056755946541e-05	0.0015658870448622911
538.0839	0.8890493134876083	2.4635252062105692e-24	2.719483566715469e-20	2.0513476504500955e-05	0.000723262185571612
538.2339	0.9023145978664425	1.7401368086622517e-25	1.0052131290850724e-21	6.554319083453528e-06	0.0002016125284371036
538.3339	0.9095704729952412	2.8714389001435863e-26	1.0429936573345663e-22	2.966786421462568e-06	8.008328910102491e-05
538.4839	0.9186758145395058	1.826508737325422e-27	3.15195856198414e-24	8.611406246418967e-07	1.8005007295915982e-05
538.5839	0.9238098173998096	2.8106178539835587e-28	2.859491171527871e-25	3.6562209724303916e-07	6.196847130520323e-06
538.6839	0.9283444571826172	4.205788136779312e-29	2.4585039988165855e-26	1.5131105361927654e-07	2.013953791973414e-06
538.8339	0.934230581762567	2.3102749738098778e-30	5.6041237489482535e-28	3.83952700761478e-08	3.351061531160916e-07
538.9329	0.9376193931615237	3.2884110304728667e-31	4.3244354261489085e-29	1.5048051471736114e-08	9.559631412673661e-08
539.0829	0.9421435560761708	1.6273470694111282e-32	8.06572153464381e-31	3.4701929618390615e-09	1.2840359189865565e-08
539.1829	0.9448154025051435	2.1182384307337052e-33	5.304300689810131e-32	1.263869858645413e-09	3.1348088946260838e-09
